7.299999999999982947e+01 2.799999999999983302e+01 -4.399999999999995026e+01 5.899999999999997868e+01 -4.799999999999982947e+01 -8.000000000000115463e+00 -7.999999999999988631e+01 -7.000000000000268230e+00 -6.200000000000018474e+01 -4.200000000000001421e+01 -2.800000000000014211e+01 1.999999999999990763e+01
7.982508913181609955e+01 2.189674314328468441e+01 -5.692575929343641405e+01 6.887515497333032499e+01 -4.886028104007837669e+01 -1.801322695225188752e+01 -7.596102144152760616e+01 -2.186101549845794523e+00 -7.309339909302522642e+01 -5.111325312556019185e+01 -3.711164284819020054e+01 9.904156305983846664e+00
8.519833922141131666e+01 2.013793215040470486e+01 -6.605893693397064226e+01 7.712770827487258885e+01 -5.116624100519240415e+01 -2.396016370248015903e+01 -7.306440316427537596e+01 8.189102557103076663e+00 -8.185468659956154625e+01 -6.380859063023355304e+01 -5.180818982652104410e+01 -8.401292069527954709e-01
9.273298491851534209e+01 1.984692057371188056e+01 -7.289213890142481489e+01 8.281906515826555903e+01 -5.479491889508274483e+01 -2.802070959099964753e+01 -6.498174240745112229e+01 2.766898492240635932e+01 -8.017410743773173465e+01 -7.415507212441634977e+01 -5.817735459201280435e+01 -6.148157151940121246e+00
1.031980355961262177e+02 2.510733143407850676e+01 -7.709266584314076454e+01 9.113089159446228393e+01 -6.115549522953713790e+01 -2.699933798783718686e+01 -5.410299619965013562e+01 5.313695808971253598e+01 -6.792446167666145129e+01 -7.285083765749747897e+01 -5.285994913709623688e+01 -2.870662542866660338e+00
1.107073314657147165e+02 4.071452788283084345e+01 -6.898731897855294903e+01 9.185682889593729783e+01 -7.271222473911363693e+01 -1.413747687254972085e+01 -4.895072569865648404e+01 7.561300760932110165e+01 -4.928038497113371363e+01 -6.227479120461428153e+01 -4.028752910941339138e+01 3.793097535745029614e+00
1.182085196639861522e+02 6.203485240688178237e+01 -5.716094198133661308e+01 8.818678357538468049e+01 -8.711369278534648686e+01 1.942702401066099371e+00 -4.707984152912653286e+01 9.415663011747960809e+01 -2.799293600952904981e+01 -4.395806549281727627e+01 -2.095737592992118792e+01 1.210121988536639925e+01
1.227081738105321875e+02 7.279340919788764097e+01 -4.994000801602846451e+01 8.682822359662567635e+01 -9.673658022920086808e+01 1.091648823675375546e+01 -4.494974056256901918e+01 1.066419964618274037e+02 -9.287944724494888504e+00 -2.336332571789739276e+01 -1.343863427139424527e+00 2.174375715354004512e+01
1.272247220772496377e+02 7.516829418996242396e+01 -5.104103546349746523e+01 8.913301370299993209e+01 -1.002086083425429450e+02 1.305811246857092378e+01 -4.308631559758272545e+01 1.142371719676534525e+02 2.080749122746991198e+00 -4.949551947632611082e+00 1.407187112518383465e+01 3.110752759579948545e+01
1.297079504167571713e+02 7.189461869014982653e+01 -5.782342840562930064e+01 9.376951244000241559e+01 -9.880476060425525020e+01 7.051031451116681836e+00 -4.192777118226871380e+01 1.157131525353389208e+02 8.789663425359972138e+00 6.699650224662359044e+00 2.471526738401608725e+01 3.480119045915462550e+01
1.332345678896680852e+02 6.526000868515039599e+01 -6.697168540243812629e+01 1.000921936445216431e+02 -9.724947448383051096e+01 -8.668045337442298326e-01 -4.306066861806026935e+01 1.172607668355213804e+02 1.017414336695279253e+01 1.416037910991419402e+01 2.919206392881532963e+01 3.716233592445940559e+01
1.327638524234239696e+02 5.597070574794868492e+01 -7.581250725041394389e+01 1.057698407984429991e+02 -9.186982583581381334e+01 -9.911379809006986008e+00 -4.292897381922388433e+01 1.196552050775363512e+02 8.863079414905532971e+00 1.187365832301469837e+01 2.686088304913553060e+01 3.585245224154555643e+01
1.312753311300895973e+02 4.627898483458434242e+01 -8.297816905700723566e+01 1.091319324818110630e+02 -8.725448977570914622e+01 -1.787630427077025175e+01 -4.405341472099147637e+01 1.271548875341889584e+02 5.222594437526845823e+00 7.255501009029113213e+00 2.127963546201062783e+01 3.517395207397941448e+01
1.326578071661991203e+02 4.185168447971281580e+01 -9.080341871998254533e+01 1.127521419741037221e+02 -8.578202748436741842e+01 -2.296387574493926209e+01 -4.394066900054010461e+01 1.365490009390618980e+02 4.778555380705800104e+00 3.822326984473351619e+00 1.877888778396467373e+01 3.578422348649945661e+01
1.401348667239125803e+02 4.213951079301398295e+01 -9.602196377947586825e+01 1.180846639617911933e+02 -8.814082463316189830e+01 -2.692412071561415843e+01 -4.406092409249147579e+01 1.480978271373068367e+02 9.101875016131753426e+00 6.119845894769325056e+00 2.212836476550186049e+01 4.106862995231433899e+01
1.466163178723001010e+02 4.669308459920436860e+01 -9.889408331298001542e+01 1.227545133391373753e+02 -9.462778312562598160e+01 -2.610696393554253802e+01 -4.393925670074736445e+01 1.585256872183770440e+02 1.371822923868312927e+01 1.070935156905947316e+01 2.766546966214733061e+01 4.671200443129691138e+01
1.541373894790292240e+02 5.407692014435704664e+01 -9.810821703322385190e+01 1.261178917371663601e+02 -1.031028563209368656e+02 -2.201428597466615855e+01 -4.405598055161553361e+01 1.681425680201732575e+02 2.102152212926529984e+01 1.802335004596374546e+01 3.603900573851387179e+01 5.500877083012094459e+01
1.567602583936227916e+02 5.583019071667667532e+01 -9.887673764131848486e+01 1.287866898435643179e+02 -1.048078620796699596e+02 -2.104080388297850135e+01 -4.490894455449785738e+01 1.745725498344219773e+02 2.963062789147064535e+01 2.758968777267916650e+01 4.460967445452666169e+01 6.075493508951227994e+01
1.552578389639285206e+02 5.614944315213885773e+01 -9.910612987279381514e+01 1.291834033643609132e+02 -1.042026970710169991e+02 -2.095357535420059847e+01 -4.605017084987088793e+01 1.811844721312257889e+02 3.805544681348806790e+01 3.896089061603479564e+01 5.401636360500350520e+01 6.506195398074905256e+01
1.595562627251328820e+02 5.871884081484524387e+01 -9.985853695549197084e+01 1.307376677770888591e+02 -1.066668930130766171e+02 -2.107552662355552187e+01 -4.689730201642228025e+01 1.855687109054290715e+02 4.079311574195479295e+01 4.670139533416610789e+01 6.069037412092835382e+01 6.878614657693040613e+01
1.671204307040916888e+02 6.501181221980210978e+01 -1.010921197966296319e+02 1.341247409151938541e+02 -1.140265687373926511e+02 -1.707093619195132916e+01 -4.902608590994404381e+01 1.931373339234610000e+02 4.215727097066002216e+01 5.012262712147406774e+01 6.414217046377648046e+01 7.013553360619417276e+01
1.735272172511169799e+02 7.070957607265761169e+01 -1.027911143956806796e+02 1.376574080057731067e+02 -1.196863250517564836e+02 -1.597838035428475578e+01 -4.897113648578886824e+01 1.975854107343957651e+02 4.277856227329190375e+01 5.275553668041238353e+01 6.578945656356714267e+01 7.178526210705891231e+01
1.820767487292820306e+02 7.504306777733295064e+01 -1.070723309038856144e+02 1.450315721140558196e+02 -1.250100462642883627e+02 -1.703606856603591524e+01 -4.805247716724737472e+01 2.050618441001129781e+02 4.608754768726326745e+01 5.416364243526789579e+01 6.520503029914350179e+01 7.408774343616821056e+01
1.885299106841890762e+02 8.347276623109867444e+01 -1.030895096258785628e+02 1.477797459461197604e+02 -1.344966898014011178e+02 -1.028756031863959386e+01 -4.987066667501904504e+01 2.134545944291427872e+02 4.779896997975708928e+01 5.574952403889916042e+01 6.767696601559156022e+01 7.772404631943761899e+01
1.961142032432634608e+02 9.686167898228718798e+01 -9.819338812760476287e+01 1.491890426283975728e+02 -1.440057429809455698e+02 -2.160363114933566031e+00 -5.106148534562752417e+01 2.239849881272236019e+02 5.006425225021145309e+01 5.810267738459549491e+01 7.112176469819776514e+01 8.201102801792805508e+01
1.968227566218657216e+02 1.036972387421705832e+02 -9.218864924918631232e+01 1.450287991976929618e+02 -1.477624158024328551e+02 4.745011039183589574e+00 -5.187834108385693099e+01 2.343633119125263136e+02 5.559073510397697504e+01 6.356753495093223449e+01 7.654102754266581599e+01 8.955708647962789826e+01
1.942724478450588776e+02 1.080383596516075215e+02 -8.419065097705919243e+01 1.402061626730007049e+02 -1.491058729315104472e+02 1.090801861569312692e+01 -5.307528067357913670e+01 2.469292651643240504e+02 6.488870135101434755e+01 7.194700603233216896e+01 8.497597577575736238e+01 9.794909949957376227e+01
1.984570235292333393e+02 1.126431219493324392e+02 -8.579310622771070882e+01 1.426721772391249488e+02 -1.545740199532239956e+02 1.387417740801200061e+01 -5.289103354350368136e+01 2.555076000901721898e+02 7.167040491608722164e+01 7.956382690246776690e+01 9.253220031526078060e+01 1.046121653382901542e+02
2.079546543871354345e+02 1.189860885634418253e+02 -8.800258540620853864e+01 1.479474221254793065e+02 -1.609974356949385879e+02 1.603178016233052716e+01 -5.502071971686513052e+01 2.611119077133398036e+02 7.695954133654447560e+01 8.601879506971661726e+01 9.905520434214096781e+01 1.109790632335554221e+02
2.183001779501760495e+02 1.218195832291223581e+02 -9.548402051076277530e+01 1.583550697193526844e+02 -1.675649171121997085e+02 1.314796906039056523e+01 -5.494608427973848563e+01 2.683462453420046359e+02 8.360799227665619071e+01 9.158315007973546074e+01 1.045326881653128623e+02 1.166235853161661851e+02
2.308641558352671836e+02 1.220892596635291909e+02 -1.068000662121875450e+02 1.698878608416572717e+02 -1.739439482011523239e+02 8.153062591511389456e+00 -5.597646971171828056e+01 2.790101033285803283e+02 8.901068985339117035e+01 9.706290582504344400e+01 1.110652217759031402e+02 1.220174207926016550e+02
2.422290426561586969e+02 1.293660484899727692e+02 -1.118105133070370698e+02 1.774831649207933992e+02 -1.842977282101737728e+02 8.781383720836656082e+00 -6.063680389583891639e+01 2.835683186666134361e+02 9.272977201163138261e+01 1.006269053552757526e+02 1.146137364424102145e+02 1.256890534775528181e+02
2.576584835849197930e+02 1.417972421962011538e+02 -1.139673394566645896e+02 1.868601748349760783e+02 -1.977202750193433474e+02 1.393931963303299071e+01 -7.069303164369935644e+01 2.890547833300535103e+02 9.414074941641300143e+01 1.060070089363598811e+02 1.191082719142114428e+02 1.299870759561535465e+02
2.740066414285772112e+02 1.495315791163854442e+02 -1.214233550081500823e+02 1.972000366679476997e+02 -2.102868443905051095e+02 1.306265237134590862e+01 -7.681566346285451630e+01 2.953806005501667187e+02 9.664057460617824802e+01 1.106052130697405005e+02 1.216188959693497651e+02 1.355671731583487087e+02
2.926493201701622411e+02 1.560571818901156291e+02 -1.346196795137696824e+02 2.155554077637451087e+02 -2.218537114536490549e+02 1.113449584630783740e+01 -7.991592596162678319e+01 3.067578291398213537e+02 1.019552397929694507e+02 1.159683540687553460e+02 1.270033608341586842e+02 1.428400155225375556e+02
2.988646935439831509e+02 1.540324813108526598e+02 -1.418086737818467213e+02 2.209580533336730923e+02 -2.249430261838851379e+02 7.140430370453342945e+00 -8.285852954876524734e+01 3.191853358240981038e+02 1.084720626496007725e+02 1.233795832135639188e+02 1.333758861431445837e+02 1.532661741955585626e+02
2.942941481734431477e+02 1.511751508824308132e+02 -1.429609351495994645e+02 2.190356364088518717e+02 -2.193323569637159665e+02 5.073815675308289919e+00 -8.491819883138165892e+01 3.327076256378160792e+02 1.168799335877822330e+02 1.338022554775556046e+02 1.447850840273602557e+02 1.667062126672470868e+02
3.020828556075379652e+02 1.526991175524033792e+02 -1.504541583789751371e+02 2.273202069376395968e+02 -2.242827008165311895e+02 2.173911670828893250e+00 -9.058560346947268727e+01 3.433855240824478869e+02 1.225590278444881420e+02 1.423897513751314534e+02 1.515502482637620290e+02 1.727358852498980468e+02
3.157388701579204167e+02 1.569081104514865501e+02 -1.578862998166666500e+02 2.377516507092653910e+02 -2.348186630566773090e+02 -9.323483475871370274e-01 -9.786231880420376683e+01 3.499205315322602132e+02 1.298125365138832876e+02 1.518064988634316421e+02 1.578854694422929583e+02 1.758614009683640234e+02
3.298857637034707295e+02 1.644014665641755926e+02 -1.644592146018209746e+02 2.482487520032421742e+02 -2.451699681405992521e+02 -1.047843123920583430e+00 -9.807667909610734114e+01 3.628785195242456325e+02 1.383551572113806856e+02 1.612431863025954044e+02 1.671679129128913814e+02 1.880229759255691988e+02
3.457826108277556614e+02 1.737153433002096676e+02 -1.710931852107841280e+02 2.588762163007793333e+02 -2.577168896593621525e+02 1.725721135568869524e+00 -9.605532507806218234e+01 3.796622025959965185e+02 1.496322021684148353e+02 1.736896931573696747e+02 1.825256339501001150e+02 2.063215516368825604e+02
3.533242132512280591e+02 1.860176476338770897e+02 -1.662494861462475626e+02 2.608529107617558225e+02 -2.681912351366643179e+02 1.046263481058513811e+01 -9.778628030974455498e+01 3.902403977704621525e+02 1.594143288297990750e+02 1.832575686037925209e+02 1.933452469024015841e+02 2.221585192345822861e+02
3.619434176726102237e+02 2.025428951503301391e+02 -1.603241779313950133e+02 2.610899523225810981e+02 -2.797614339752653336e+02 2.059709551295522445e+01 -1.026916529462569656e+02 3.980548303934243677e+02 1.668645992735285688e+02 1.956553969342922414e+02 2.036651425093177750e+02 2.336763682347892654e+02
3.673586034311375670e+02 2.087476008091933295e+02 -1.587476203928142979e+02 2.645415762348779936e+02 -2.865003067980985065e+02 2.499185010473568980e+01 -1.114558804746882146e+02 4.023720040271066409e+02 1.716429750342443583e+02 2.025644846345845735e+02 2.124456263819032529e+02 2.442135911455841608e+02
3.776056688883560355e+02 2.109617993275992092e+02 -1.655822427080730961e+02 2.716752863283538773e+02 -2.918969498818128159e+02 2.313390079947937394e+01 -1.205805653607872330e+02 4.099822146851150819e+02 1.741144620073042972e+02 2.079014654305294982e+02 2.188647293965049130e+02 2.556614607797362453e+02
3.935826561287913137e+02 2.164535793837537483e+02 -1.771563372029062009e+02 2.857599267117199702e+02 -3.019474824667609028e+02 2.023533758428661145e+01 -1.295077761504498426e+02 4.135191089498526367e+02 1.747779068013537369e+02 2.134371079275759371e+02 2.254342676748534586e+02 2.643394130876386612e+02
4.161766292600670454e+02 2.237880022752262050e+02 -1.913872653505952712e+02 3.062134596732760201e+02 -3.184294975013976341e+02 1.520503287303124118e+01 -1.357927658572929772e+02 4.189525864415696219e+02 1.760891781457516458e+02 2.217500241324843557e+02 2.318691815843567383e+02 2.745800222011656047e+02
4.310920957745761939e+02 2.295730569556561420e+02 -2.014933865608020653e+02 3.183953254161791051e+02 -3.293181860936689986e+02 1.399786231626919886e+01 -1.406614394359054643e+02 4.243918244331867982e+02 1.785840439138916054e+02 2.275484548209489333e+02 2.383825480132901760e+02 2.843413595375598106e+02
4.408240136423628428e+02 2.338551296755558440e+02 -2.060387685417285581e+02 3.239716110000009053e+02 -3.359129625246750379e+02 1.390221456433257430e+01 -1.448638826594807085e+02 4.308968762928108731e+02 1.838722262278932078e+02 2.337328858098245519e+02 2.457784637270248140e+02 2.926779182170362219e+02
4.491094023993139785e+02 2.439173904729253195e+02 -2.041614357140728941e+02 3.266693907248607616e+02 -3.440166166984049596e+02 2.036622355574273513e+01 -1.486692200823570147e+02 4.382103868993303877e+02 1.885455616431931674e+02 2.422740642468655778e+02 2.550757085849753310e+02 3.022034776866421453e+02
4.589136835571224537e+02 2.594354806771586937e+02 -1.984868338804026280e+02 3.290955802327380866e+02 -3.576056982025623938e+02 3.051293459107304784e+01 -1.537152027614042993e+02 4.459921106380465403e+02 1.938539457420058625e+02 2.516432278424768469e+02 2.675705788601529207e+02 3.134612381865568409e+02
4.633177320786186897e+02 2.692320771394884105e+02 -1.931127566897197312e+02 3.297527422209586803e+02 -3.643988979262147154e+02 3.759587227521744524e+01 -1.613383783638969646e+02 4.485960918924829457e+02 1.985711524979724913e+02 2.602860131216154400e+02 2.762876522438836560e+02 3.251790539631057300e+02
4.727022353874547775e+02 2.796238576830820080e+02 -1.911063655338029719e+02 3.328361164991989085e+02 -3.726500376389317353e+02 4.368934334701787492e+01 -1.714491919544454674e+02 4.502969333777345469e+02 2.020375311030848593e+02 2.687199717417658462e+02 2.847533039205955561e+02 3.337340527160615125e+02
4.818704350183766678e+02 2.855343615707780600e+02 -1.952709513079711883e+02 3.410856898142127989e+02 -3.820628034021056578e+02 4.608466400630231163e+01 -1.821553971295966221e+02 4.479324587378550859e+02 2.028563491162410628e+02 2.745599680312645319e+02 2.896133664619864021e+02 3.413220342010199602e+02
5.000936599130590707e+02 2.916904996187291772e+02 -2.065119857034570998e+02 3.534520565228302758e+02 -3.945000301794936490e+02 4.313974016752632679e+01 -1.935340694631326812e+02 4.445398151625773835e+02 2.013445452990040110e+02 2.770917301049211687e+02 2.920505039293219056e+02 3.478293097668375253e+02
5.122024544594032704e+02 2.992869345090942943e+02 -2.117233162089113705e+02 3.623572047412131951e+02 -4.032229618477362010e+02 4.382862446370417331e+01 -1.986941305592953029e+02 4.408580272587943796e+02 1.989141486347993748e+02 2.795551016049353166e+02 2.954685692043896097e+02 3.551570151326964151e+02
5.224613026183061493e+02 3.076808635989449385e+02 -2.148537676384563042e+02 3.687801783185267368e+02 -4.135188523209358777e+02 4.587819160779147154e+01 -2.028045091035309326e+02 4.394382624837377307e+02 1.982418656346934540e+02 2.822083253761912260e+02 3.000339817199027834e+02 3.646921595051588838e+02
5.322178306790076476e+02 3.134660158102363994e+02 -2.186353610378788233e+02 3.753001921972423247e+02 -4.213652923372135888e+02 4.791896556306138422e+01 -2.057483090455090178e+02 4.359450180143331295e+02 1.960313778382257510e+02 2.808345047294761230e+02 3.007820033435444316e+02 3.704840189758531324e+02
5.398197940162680197e+02 3.188947763247498983e+02 -2.211284293307551820e+02 3.819399955947864669e+02 -4.278353902948346104e+02 4.794730041040646995e+01 -2.088953574855767386e+02 4.342821632548364050e+02 1.941455098481904145e+02 2.820742664758348610e+02 3.020416339777740973e+02 3.740265417090870415e+02
5.410822165541003415e+02 3.199096846143112316e+02 -2.182161651198558161e+02 3.811657838706163943e+02 -4.290434080754102979e+02 5.162467662774404431e+01 -2.090569107897170511e+02 4.355381897596926137e+02 1.973978489183751606e+02 2.836234452072735053e+02 3.054374980205719794e+02 3.790942337469555810e+02
5.346615921115691208e+02 3.200064371394292380e+02 -2.134855056187199409e+02 3.746714711356350449e+02 -4.244522276634240825e+02 5.487705476397339055e+01 -2.080399446732986632e+02 4.373006830753606096e+02 2.037718820461228972e+02 2.878217258739192630e+02 3.117070493868185963e+02 3.905331491989767301e+02
5.325748421010666789e+02 3.243439839959971209e+02 -2.082011530075065764e+02 3.708038474808473666e+02 -4.253403169957187515e+02 5.857640859356050811e+01 -2.096721562418147187e+02 4.358614470509621697e+02 2.077018247661501675e+02 2.933317167844098776e+02 3.183407724161776287e+02 3.964504693250174796e+02
5.361111673092974570e+02 3.308868426722359004e+02 -2.052844799108878249e+02 3.713087423664866265e+02 -4.319754378961230827e+02 6.287301091778916629e+01 -2.154997802819935657e+02 4.326906649127170681e+02 2.073265445002658112e+02 2.998352796266254359e+02 3.238695824262754286e+02 4.027236405999635167e+02
5.333210152170875062e+02 3.293569112773272423e+02 -2.029871328456232504e+02 3.680344868679841852e+02 -4.293397128503038971e+02 6.312009323002604333e+01 -2.224916297340814140e+02 4.254057465955335147e+02 2.050691328073360751e+02 3.018542883521736258e+02 3.267865782260188325e+02 4.066749280600976135e+02
5.256499096611732966e+02 3.216482910096652859e+02 -2.030555765385356608e+02 3.663156837127307881e+02 -4.225950045835008950e+02 5.937385209178558654e+01 -2.277361262243336739e+02 4.142484430499123391e+02 1.988634395361641225e+02 2.995265926000036529e+02 3.236294173291910852e+02 4.080963681867417563e+02
5.245375076045691003e+02 3.187708341634428848e+02 -2.037708512179191587e+02 3.647805071614710641e+02 -4.197669481654561991e+02 5.696572587225264073e+01 -2.299652811394672653e+02 4.050449265840384783e+02 1.920604220090689296e+02 2.950564213362266059e+02 3.199059417356529025e+02 4.096323737318894587e+02
5.271637614793395414e+02 3.201306221981006956e+02 -2.059808560046304251e+02 3.670217937423584544e+02 -4.220166958704748481e+02 5.706830708302634747e+01 -2.282729795493057452e+02 4.000342512932257932e+02 1.886685816725025688e+02 2.924697374769717158e+02 3.167168002312182011e+02 4.112479645467913087e+02
5.268797076827353294e+02 3.198474312216756630e+02 -2.059820922600184190e+02 3.669353701187418437e+02 -4.219834368821445310e+02 5.692749180911788898e+01 -2.252048526854447346e+02 3.885371907648440697e+02 1.821465377047865388e+02 2.881068942362971939e+02 3.109988886661798801e+02 4.081764623229594804e+02
5.236439582694738419e+02 3.193410189557328636e+02 -2.043486612248599954e+02 3.653836238422966858e+02 -4.194272236773691134e+02 5.707358124219352646e+01 -2.222549344711144386e+02 3.800199466336579235e+02 1.795063523226711197e+02 2.854462740419199918e+02 3.086475873071104274e+02 4.028055942532532754e+02
5.199122531335450503e+02 3.160800704970776565e+02 -2.010416497702885010e+02 3.620674404242155902e+02 -4.161032197675276052e+02 5.692518024318896153e+01 -2.201229024232752067e+02 3.696014558096794644e+02 1.733409439775633984e+02 2.803470795128567943e+02 3.005082762757966748e+02 3.927663734232767183e+02
5.152200126180721327e+02 3.135285714878837666e+02 -2.003496461230635930e+02 3.587487743273781007e+02 -4.117824103425058411e+02 5.707789099286430456e+01 -2.165767172188017753e+02 3.591380438189343067e+02 1.693365515935956012e+02 2.745568292775952273e+02 2.936413470678193676e+02 3.827899718471741721e+02
4.968027968801117140e+02 3.049191035881360676e+02 -1.911736182922505236e+02 3.454881250357661315e+02 -3.993837295427672984e+02 5.690908038945183023e+01 -2.078447420486029955e+02 3.527359742877840745e+02 1.695036039501148935e+02 2.726769581241542824e+02 2.907356627472516948e+02 3.788395728490426109e+02
4.722333917928461915e+02 2.929212607119085305e+02 -1.770957730505821814e+02 3.257153439572542766e+02 -3.805353918429740929e+02 5.790097645729255760e+01 -1.978449294012424104e+02 3.527174176517974615e+02 1.748294478571469313e+02 2.750910835195949744e+02 2.922265777006122107e+02 3.792455103575931616e+02
4.546261941830417754e+02 2.887681196470002760e+02 -1.659284621658450192e+02 3.108248525238698790e+02 -3.702759270439735815e+02 6.143494069510103373e+01 -1.887221171427150352e+02 3.427536211379890005e+02 1.750737460578178002e+02 2.740490466496541444e+02 2.900218055942789874e+02 3.762961967826218483e+02
4.478369209036853249e+02 2.901895633286177372e+02 -1.556815376863926872e+02 3.017786883998506937e+02 -3.656287207749383015e+02 6.680869977377150803e+01 -1.815156620762576267e+02 3.314577867666287148e+02 1.716213383852461618e+02 2.698200308881889669e+02 2.875825841403782874e+02 3.682046480927760967e+02
4.395298224480288809e+02 2.872900088982226521e+02 -1.520917383630169297e+02 2.962248566522071656e+02 -3.603318060854839473e+02 6.704792983171350329e+01 -1.756614034068239789e+02 3.152716825185087259e+02 1.637619751525270715e+02 2.607120466463188109e+02 2.798227997910683484e+02 3.550867430978706807e+02
4.311796274577874897e+02 2.809576998846385436e+02 -1.485564718741633499e+02 2.908862849018368024e+02 -3.530676893729584549e+02 6.617677240555163110e+01 -1.668333869190550445e+02 2.995970728735531452e+02 1.539239235662847989e+02 2.502792774106934814e+02 2.665422616058341418e+02 3.397500595535565822e+02
4.165405556128271201e+02 2.700088776807140789e+02 -1.441910520978642296e+02 2.808847519080333086e+02 -3.411720273366499896e+02 6.333148891043464346e+01 -1.579558076768360309e+02 2.866205177256995853e+02 1.472787632019989417e+02 2.378407264796740321e+02 2.536607973954664033e+02 3.231305902419668428e+02
3.954085215296041724e+02 2.565542486988509268e+02 -1.398615975508639337e+02 2.685695580590433451e+02 -3.240165445690254273e+02 5.935718855503540681e+01 -1.452538973102272735e+02 2.789586436323978091e+02 1.434335924446353090e+02 2.280926879410358481e+02 2.451369476685987934e+02 3.103623688728293928e+02
3.695395957110590643e+02 2.411969205498740791e+02 -1.266286727055673111e+02 2.491398068374908803e+02 -3.037944959604893143e+02 5.782607831863643355e+01 -1.339761070011207096e+02 2.713786361842771271e+02 1.418278673066246824e+02 2.185278476614813599e+02 2.346004258539911405e+02 2.978892316513083642e+02
3.398351405507617073e+02 2.283804813805321317e+02 -1.092769176509518445e+02 2.250643567232082773e+02 -2.822307936311333378e+02 6.001884569875867470e+01 -1.213557201860266588e+02 2.633770381826691391e+02 1.421872977768663588e+02 2.127609039026217772e+02 2.286903422378672133e+02 2.864586638239090917e+02
3.190677175162255139e+02 2.134905347174282326e+02 -1.053882306490212386e+02 2.131603504877527939e+02 -2.641488366700543793e+02 5.501199450373717781e+01 -1.106093711322506010e+02 2.507583884382402744e+02 1.410555308909426344e+02 2.054666278021674941e+02 2.224414700274930112e+02 2.721384771877795856e+02
3.067066362861679636e+02 1.967395136636164921e+02 -1.110271842831494098e+02 2.099342665908295089e+02 -2.507345099345820358e+02 4.386602594855202142e+01 -1.046548271344645684e+02 2.414320079451173342e+02 1.368516348193145120e+02 2.006598034576226155e+02 2.159550314604097423e+02 2.594828393194143814e+02
2.863915222665040687e+02 1.812717934776831612e+02 -1.042826883929545261e+02 1.958220803205500431e+02 -2.319324953432477230e+02 3.990920708830801544e+01 -9.929440272732971096e+01 2.255060172427100724e+02 1.287012583739318643e+02 1.928395982650944802e+02 2.067671847901810906e+02 2.452274003271663787e+02
2.588184192419258238e+02 1.683165728971276565e+02 -8.949110771213854321e+01 1.751391143616587271e+02 -2.110975137675491737e+02 4.101419978943160061e+01 -9.642538424622335924e+01 2.097026943565307988e+02 1.192497444452023956e+02 1.831409843640859378e+02 1.972634807303782623e+02 2.316048197471118044e+02
2.375557736484769009e+02 1.577744166755246624e+02 -7.783017910414190510e+01 1.582418826738142457e+02 -1.951100788831500665e+02 4.011397963374270148e+01 -9.074863751647346533e+01 1.959371444227782035e+02 1.087603540026038047e+02 1.720853185564082537e+02 1.851040287700135423e+02 2.171835791976216115e+02
2.192265726961476560e+02 1.491286043002077406e+02 -6.985865309939758561e+01 1.454253650420706663e+02 -1.825938106580244096e+02 3.909655666762733262e+01 -8.199562428864915375e+01 1.862084565520072488e+02 1.001221749127776519e+02 1.603210786447322960e+02 1.733429716732030101e+02 2.045627192107364181e+02
2.014381194077899693e+02 1.380842132620706764e+02 -6.260359792756094066e+01 1.339574854058634799e+02 -1.682824896111783346e+02 3.814195546402181236e+01 -7.369845811199719776e+01 1.758509122262162805e+02 9.071505774626959351e+01 1.489908061138706898e+02 1.619781479091903407e+02 1.902410126319968526e+02
1.849367487521074622e+02 1.279503477576505475e+02 -5.665355387555509026e+01 1.224564545622092311e+02 -1.553692745300305091e+02 3.619809207774324022e+01 -6.602463061089734708e+01 1.662209261730968706e+02 8.298616916568394686e+01 1.390896582643177055e+02 1.512902230195311972e+02 1.783501311518770365e+02
1.733772152905223720e+02 1.222113135100318289e+02 -5.146528322095298336e+01 1.124779754646529994e+02 -1.464354183196003873e+02 3.584817101282063589e+01 -5.600020127095753963e+01 1.567619352462296831e+02 7.548818415514597291e+01 1.299093056884642294e+02 1.408925300304422024e+02 1.669593503149248477e+02
1.679108757817306241e+02 1.210184539703474940e+02 -4.577237715388995554e+01 1.076969436548478569e+02 -1.424244586472539709e+02 3.772411813810547443e+01 -4.698634316775184772e+01 1.472516275793724105e+02 7.059553428276359455e+01 1.200718228132018623e+02 1.311520784294983173e+02 1.579743886680988396e+02
1.653361750289642487e+02 1.234345735612685786e+02 -4.026439083673547970e+01 1.038891506413984587e+02 -1.424420902634078345e+02 4.149146634439576786e+01 -3.792522211156705225e+01 1.408955697430214684e+02 6.787755189501881148e+01 1.141651128450076698e+02 1.242589613641718955e+02 1.521507408600581357e+02
1.693337129372571042e+02 1.277667016916191329e+02 -3.909651784536539765e+01 1.051123194616210981e+02 -1.468712003483738329e+02 4.485333838106534188e+01 -3.060495129398589143e+01 1.405673095224231588e+02 6.821831075345357931e+01 1.115382062302337118e+02 1.206408472751753465e+02 1.504329593283254383e+02
1.637200592413777827e+02 1.274860836877858361e+02 -3.736092411489406118e+01 1.024913469469423717e+02 -1.447533852920277866e+02 4.512864906109638952e+01 -2.641035004412052345e+01 1.345540969699505354e+02 6.620865836249811309e+01 1.073494124712541264e+02 1.170495733759791648e+02 1.463737600867063691e+02
1.544820614654078668e+02 1.192206378217287295e+02 -3.339958256514614732e+01 9.516838885007149429e+01 -1.343629438954286854e+02 4.240638744208560240e+01 -2.165991772068750265e+01 1.287957728999429037e+02 6.181566927997146621e+01 1.026790410614295297e+02 1.146274268058424468e+02 1.417471742263842032e+02
1.422125442024853328e+02 1.106586230979891070e+02 -3.048230288326861626e+01 8.587309851840491604e+01 -1.248934927229002199e+02 4.086077761532037300e+01 -1.573464250143266518e+01 1.241442353506159435e+02 5.704681986037204666e+01 9.982413079288281210e+01 1.117429762563009348e+02 1.363412190996441495e+02
1.289625427404534150e+02 1.047247502882581358e+02 -2.312606222844865300e+01 7.644227354681783027e+01 -1.144449553803320470e+02 4.198245288890485227e+01 -7.996181315949314694e+00 1.215745796807542831e+02 5.636929143039168366e+01 1.003327977064876961e+02 1.133083110031145821e+02 1.326590565223284841e+02
1.120108550807030241e+02 9.877917417781068821e+01 -1.332347515060712162e+01 6.277132095798562261e+01 -1.033102366911655139e+02 4.273274686325849103e+01 -6.433822777652971059e-01 1.181256427694632549e+02 5.243390803262745692e+01 9.643883689618679966e+01 1.085738076035210895e+02 1.274166956761087164e+02
9.224230225394292404e+01 9.009124549084764055e+01 -2.453050529273920477e-01 4.658387841119322559e+01 -8.877670698427630214e+01 4.492090518719532355e+01 4.469391439339038818e+00 1.148211313126689532e+02 4.772898147888300713e+01 9.176582342598496211e+01 1.036530860520339701e+02 1.228595404758753915e+02
8.353375815151871109e+01 8.351916062942990493e+01 1.046037284112432575e+00 4.229187402752248204e+01 -8.097148698212282625e+01 4.351592684730388072e+01 7.027047712618800901e+00 1.085422999857517397e+02 4.244805616642238277e+01 8.483359231165329106e+01 9.852131755359813781e+01 1.148656968681146395e+02
8.634020807046854884e+01 7.777482910152424722e+01 -6.632650039793029251e+00 4.702037176441839961e+01 -7.956496667467946793e+01 3.691468790231881059e+01 6.086121418977853637e+00 1.020968883104376488e+02 3.773222283994038406e+01 7.771974973269753661e+01 9.360586571692931557e+01 1.078676139205703635e+02
8.314440548885636417e+01 7.409448051310239691e+01 -7.964444578399288766e+00 4.601711318306887932e+01 -7.693269053385705547e+01 3.285717579315507919e+01 5.961088996123476313e+00 9.530167850970340737e+01 3.323282290237447256e+01 7.494711041541236796e+01 9.097043632775098843e+01 1.015299362481592027e+02
8.058741529522282576e+01 7.235586027975131174e+01 -6.347441574020770361e+00 4.444661227075049936e+01 -7.551974193677557423e+01 3.418094221366411034e+01 6.067145709012866206e+00 9.260539002441554146e+01 3.058184183228190633e+01 7.431882215854490425e+01 9.032062133749204236e+01 9.828315365922136948e+01
7.940593563875520999e+01 7.024947244675179547e+01 -7.975384933968181045e+00 4.422734408210409640e+01 -7.375264439144261530e+01 3.055003716104431533e+01 5.099110483157477169e+00 8.680931521005197737e+01 2.558343943691184919e+01 7.144650602085755509e+01 8.742596673833858745e+01 9.629909836445892779e+01
8.378296090586263745e+01 6.650285801824787768e+01 -1.634479666974614886e+01 5.141683024832335747e+01 -7.427488737075834990e+01 2.647592511195845688e+01 4.973189702466974893e+00 7.896602070494991210e+01 1.985999973772467087e+01 6.583502734909738763e+01 8.189482820083159709e+01 9.253045105999179043e+01
8.644867571717678345e+01 6.576387803963383760e+01 -1.971719077490662997e+01 5.385850725416864293e+01 -7.372572638847186965e+01 2.400259902480124197e+01 4.966529865307522940e+00 7.504848339532127000e+01 1.440073481032633040e+01 6.205797534544575456e+01 7.717727038517892879e+01 9.081545669440561142e+01
8.750740064131431950e+01 6.531792666473427289e+01 -2.024904333950383517e+01 5.412087813365252487e+01 -7.426905303038736861e+01 2.416259325579511241e+01 5.868515467491421056e+00 7.255336200316423856e+01 1.137519525143941657e+01 6.044501020868490571e+01 7.535571629478289424e+01 9.202235184266827162e+01
8.490203626288581518e+01 6.557954043868831207e+01 -1.823758440603468500e+01 5.318161154234186228e+01 -7.374881673858956788e+01 2.287176223912036477e+01 6.751974695169192131e+00 7.235648077896532016e+01 9.974424719545266882e+00 5.808991426237837885e+01 7.395415543174264883e+01 9.120019842211084438e+01
8.370609447096371980e+01 6.638306540704654424e+01 -1.466599179519807272e+01 4.966446064479247724e+01 -7.351801591762105659e+01 2.566782644385741463e+01 1.043170846752879122e+01 7.517000723922745919e+01 9.210385333171034361e+00 5.636076029760562989e+01 7.324115769058663261e+01 8.915959197083017784e+01
7.919224219443854906e+01 6.408395365086877860e+01 -1.265491334861865091e+01 4.698157976233895283e+01 -7.017371074506760920e+01 2.612210598563598296e+01 1.291384175676821400e+01 7.548574322971222728e+01 9.612385818589032738e+00 5.572606860024094289e+01 7.355663730194942218e+01 9.053022288420912389e+01
7.603376370615957569e+01 6.243091657609660672e+01 -1.358656095638471406e+01 4.482748554155199372e+01 -6.767404334525367915e+01 2.594998103245212917e+01 1.459305533317340675e+01 7.809738812645319683e+01 1.186295734250399647e+01 5.697521816237848213e+01 7.668212673281408343e+01 9.287804806948759051e+01
6.642334467043873758e+01 5.946060276054180349e+01 -6.892978491486545067e+00 3.793784150834844127e+01 -6.191281475957203639e+01 2.598420548952647380e+01 1.689080196261119227e+01 7.783505662768907030e+01 1.369738466414045952e+01 5.934018587977341497e+01 8.035348168363240973e+01 9.467841823729510509e+01
5.448207504130269996e+01 5.378013120416186155e+01 -7.844102712941840583e-01 2.925439363476220933e+01 -5.312576341747434583e+01 2.681782144132123591e+01 1.778432496581733702e+01 7.666573134627952868e+01 1.342211403848636664e+01 6.211762930172803010e+01 8.304213000465188088e+01 9.520168240125042303e+01
5.178000540792305628e+01 5.469333851000970981e+01 2.985095632136395061e+00 2.541665357611084630e+01 -5.192170616843467457e+01 2.856672636579725832e+01 1.970136884560936963e+01 7.375376630439750159e+01 1.186968630538056146e+01 6.180720166530178261e+01 8.295142841042627424e+01 9.485240985052813301e+01
6.197973562612985177e+01 6.349050589778403975e+01 2.174851008673382768e+00 3.051918642866875331e+01 -5.945618303286693873e+01 3.262628635801721799e+01 2.185500989518797965e+01 7.527139009334706543e+01 1.144029615743697370e+01 6.149431827100922732e+01 8.150245155348399351e+01 9.439791826080406167e+01
6.890873470424612890e+01 6.419424166259034337e+01 -2.515767558189347941e+00 3.569584109279146134e+01 -6.328271709244704368e+01 3.095728980917562723e+01 2.055462540426622198e+01 7.156340449110017232e+01 8.326654372873301568e+00 5.890203822052502858e+01 7.837794296435042440e+01 9.139365200210858120e+01
7.474569685865165525e+01 6.151138565663966062e+01 -1.389185759271898490e+01 4.513009172282790615e+01 -6.693406503865722357e+01 2.376041484711342022e+01 1.644696680508751285e+01 6.749650057954595184e+01 4.700737261601885209e+00 5.937348867888442072e+01 7.382568764530600447e+01 8.760854168997852298e+01
7.725176325343585404e+01 5.983987481112792040e+01 -1.860720223030075715e+01 4.949965146363729218e+01 -6.768984104978686389e+01 2.020275660903332948e+01 1.483786037695318782e+01 6.665185581322712949e+01 1.919263646211059493e+00 5.471766283979339107e+01 7.018504502824598035e+01 8.505132390115689134e+01
8.117682004315119570e+01 6.025406310666168963e+01 -2.023751252107150123e+01 5.129615147954945087e+01 -6.838469273688475880e+01 1.992580574868719978e+01 1.760116716740008869e+01 6.811161358628913831e+01 1.443852885130162189e+00 5.045105291742628140e+01 6.681190016106586427e+01 8.421103475302099639e+01
7.551713416974459392e+01 5.687085771736688145e+01 -1.656821463464441635e+01 4.693030072288014054e+01 -6.397261468293688580e+01 1.933785978335563627e+01 1.817858439431761042e+01 6.784763356866621109e+01 -1.001234368521226159e+00 4.889536723052918887e+01 6.379940767729140561e+01 8.386339353722685530e+01
6.272469885603671003e+01 4.891454369856388951e+01 -1.283044081904774991e+01 3.847369257706104406e+01 -5.445287442778958109e+01 1.773473179580196657e+01 1.859526469110198477e+01 6.813169703773762365e+01 -8.695633656286191338e-01 4.990295722755018204e+01 6.503429383066672642e+01 8.408677395502196816e+01
5.756306883470397651e+01 5.107554609316309779e+01 -3.734282534168759771e+00 3.056777809975192994e+01 -5.180186082739407993e+01 2.424730506624620574e+01 2.090606767382372766e+01 6.796536487746779187e+01 -1.183518493476632738e+00 5.080479091031765648e+01 6.567424100290848799e+01 8.400803711998574386e+01
5.933267260050235592e+01 6.466570440574318468e+01 6.900031952590089723e+00 2.674076448739392475e+01 -6.046336263958381352e+01 3.665451682629476693e+01 2.100150353847228146e+01 6.636652760705304388e+01 -8.655670104037976875e-02 5.186114555021074324e+01 6.697785339404791216e+01 8.304332072375794382e+01
5.714039363573487407e+01 6.915460191810606716e+01 1.173723128605343646e+01 2.307304558866396249e+01 -6.033809785143585458e+01 4.036169458922122288e+01 2.097536708144867745e+01 6.797175551161662099e+01 2.243592399764751555e+00 5.366873563979376627e+01 6.923830229225082178e+01 8.611464014037235870e+01
5.397426588734447961e+01 6.422359991437143378e+01 1.215202237539846841e+01 2.241723147609170042e+01 -5.757619797208323575e+01 3.732577705603002727e+01 2.179640262248993565e+01 7.368354588549743767e+01 6.701362681774980068e+00 5.421367224505174676e+01 7.291222992000727743e+01 8.990170869635726092e+01
4.920925382043336782e+01 5.830623041546582641e+01 1.100486803425000737e+01 1.930631040486060357e+01 -5.358263887208353538e+01 3.533958562118001367e+01 2.286169773395589999e+01 7.556013477726423844e+01 7.872451344368490922e+00 5.378314725926968976e+01 7.368562062190942186e+01 9.083676920206188754e+01
4.666507006712808447e+01 5.636718716875548552e+01 1.265121978730731733e+01 1.733241041282357742e+01 -4.946709457118852526e+01 3.392184904232453846e+01 2.393833557544309443e+01 7.786462393654126402e+01 7.396209121392373298e+00 5.496303513494164861e+01 7.504624501351986510e+01 8.956670503671924166e+01
4.609689534140770917e+01 5.636645846624430334e+01 1.248320624846730098e+01 1.738907779239965379e+01 -5.018760540255900793e+01 3.492222598399428080e+01 2.315421060536484532e+01 7.888586556877862677e+01 5.125309636211941466e+00 5.571924231786838533e+01 7.494434547217730369e+01 8.780114200309296280e+01
5.162756808418044585e+01 6.064007763608550050e+01 1.011807314381559308e+01 2.158707017511736126e+01 -5.470091117591001506e+01 3.502332408518637408e+01 2.377228298801620454e+01 7.750886985692969233e+01 4.256028183117119390e+00 5.702761383534877382e+01 7.425773182524237370e+01 8.825114049326955978e+01
5.437152885803256908e+01 6.128546642210852013e+01 7.832706360905151932e+00 2.440721116060669971e+01 -5.596068334441825698e+01 3.359837445291646674e+01 2.268164397396057197e+01 7.594234263258165640e+01 3.006360421124975701e+00 5.618865199336349292e+01 7.388660378694991948e+01 8.701413478260671752e+01
5.548020731014580775e+01 5.692433243085108785e+01 2.573485855921324283e+00 2.694329507840774340e+01 -5.368008101734945825e+01 2.945973046666241402e+01 1.916738113639503283e+01 7.456536399463641374e+01 3.063427986054839014e+00 5.509236256985918345e+01 7.258548205911220919e+01 8.628007220649780606e+01
5.653872622001438231e+01 5.454917620190632732e+01 -1.914740244130363811e+00 2.975910740126934684e+01 -5.313188353413552534e+01 2.665330032915464997e+01 1.827933231390248281e+01 7.214142259672475177e+01 2.259746710875496056e+00 5.435618111289254273e+01 7.008398218222338016e+01 8.508303048974784133e+01
6.416784418903954190e+01 5.701845016661148691e+01 -7.126620279521152845e+00 3.612519168573491868e+01 -5.791607310293083799e+01 2.298222708231084255e+01 1.693808028192619730e+01 7.029094942932749746e+01 1.428521792022735548e-01 5.122810123100597224e+01 6.912750169311139814e+01 8.406964777508108000e+01
5.949118988273577457e+01 5.680769036572934994e+01 -2.779957061297388510e+00 3.161103941385137617e+01 -5.702748172121256687e+01 2.632300816192180193e+01 1.791244252249402535e+01 7.210823119382234836e+01 2.260319757230879301e+00 5.331011531850863605e+01 7.120208739211783211e+01 8.628643056132318634e+01
5.908666922162853297e+01 5.796470620739918900e+01 -2.260039356097744701e-01 3.097228435523168955e+01 -5.714676403907392199e+01 2.801342231648558112e+01 1.797198337179302641e+01 7.514334045738578993e+01 4.961317292174001636e+00 5.510207128315888525e+01 7.403526192173575282e+01 8.889585045309293321e+01
5.721475702902171889e+01 5.868915458144421393e+01 2.475876139672187115e+00 2.861478695962615859e+01 -5.604745019553038787e+01 2.952992587285141823e+01 1.877196863871910892e+01 7.552396323687484880e+01 6.459305245532080519e+00 5.641730299862416587e+01 7.537944952665021958e+01 9.131114018997749326e+01
5.701698899882672578e+01 5.999495348549064744e+01 4.049603799968326534e+00 2.689968505855207681e+01 -5.601011486618214263e+01 3.102373436782091431e+01 1.993726958808342431e+01 7.712711103107660904e+01 8.170164694681121276e+00 5.816962626830633809e+01 7.725178127398547190e+01 9.319951229403699244e+01
5.687515771984723756e+01 6.067518219103818211e+01 3.942923308858103937e+00 2.709793516826124460e+01 -5.670548303635984411e+01 3.169433952142785671e+01 1.994888026983027629e+01 7.759913148937249616e+01 7.784941910762142037e+00 5.784235981666441262e+01 7.671749796153081036e+01 9.353664674612821273e+01
5.788399239071447511e+01 6.199189787583491551e+01 4.030570548535028053e+00 2.690443239624389804e+01 -5.794835092212446881e+01 3.295034248815672129e+01 2.085808687959782404e+01 7.829861537740173105e+01 8.227492055286765194e+00 5.741368527291581358e+01 7.661912140912956204e+01 9.443037745607902878e+01
5.882913818896334845e+01 6.270041959967521450e+01 4.633819931021030847e+00 2.715438239337304083e+01 -5.877855820486809080e+01 3.373522928154039846e+01 2.097908219813645658e+01 7.842424114997757556e+01 7.737878199743907892e+00 5.592762994895293360e+01 7.387908787540671085e+01 9.279599996914478766e+01
5.772447726045871264e+01 6.327090655626309967e+01 7.505586034505365767e+00 2.538665622047778569e+01 -5.846585597994842232e+01 3.491531903993656982e+01 2.251730790442081798e+01 8.094246073118122808e+01 8.992462473047593718e+00 5.605084283879799756e+01 7.500833714898294602e+01 9.397547038470789005e+01
5.416544661316180509e+01 6.200763610808295567e+01 9.772122045175226646e+00 2.330573313555246884e+01 -5.613792471222912894e+01 3.577536697110567587e+01 2.475389546151165021e+01 8.239312716488919364e+01 9.659357033050838481e+00 5.740968071297371722e+01 7.556598755831181791e+01 9.537460429184247346e+01
5.333195774838507930e+01 6.136577990774904379e+01 1.023520126490816828e+01 2.199313958879067599e+01 -5.526260349927935778e+01 3.621800669794552618e+01 2.662791223906107518e+01 8.490272240971469841e+01 1.100040671608747367e+01 5.987222378502269748e+01 7.786919470613690919e+01 9.800567922964604861e+01
5.194665037398119978e+01 5.928326941600622746e+01 7.546612539669653508e+00 2.288001056652818477e+01 -5.409396252922793735e+01 3.435801704319742811e+01 2.795537010748050477e+01 8.649371603366810746e+01 1.168226035938075213e+01 6.149052503653818746e+01 7.872952419967514004e+01 9.789331445296666345e+01
5.151267350817160207e+01 5.669736141089759940e+01 5.915624450837892567e+00 2.226386098733733121e+01 -5.258046616715969890e+01 3.231580832194109121e+01 2.809573131532355461e+01 8.736113953604002802e+01 1.228564598241368877e+01 6.311278423717617159e+01 7.924904306739081505e+01 9.741337720966974700e+01
4.769682453844349368e+01 5.332920184947868592e+01 6.767008521147923616e+00 2.124339949069739575e+01 -4.872387615806018601e+01 3.107284703326566699e+01 2.638109840790058058e+01 8.667502427764235051e+01 1.100891841391754689e+01 6.287687002243192325e+01 7.807804251280347785e+01 9.593100623090059287e+01
4.299893765871856743e+01 5.139245685872028702e+01 9.303137021931380701e+00 1.788938964884362903e+01 -4.456131002121122719e+01 3.094083986697788902e+01 2.580272422321881365e+01 8.730896547225572135e+01 1.032629807256205545e+01 6.240331394770633011e+01 7.652678679298662701e+01 9.543009856842985528e+01
3.843107554090779132e+01 5.001504339851186387e+01 1.265358968212721891e+01 1.426866651257423690e+01 -4.303983884568911122e+01 3.177938229959060124e+01 2.611586773032167841e+01 8.668465753815615926e+01 9.698125459192874942e+00 6.097005481686228023e+01 7.490767071522159881e+01 9.388031638858660699e+01
3.627192114870796757e+01 4.992795541332390030e+01 1.459181631675361146e+01 1.241138775107574510e+01 -4.213935974374296478e+01 3.283620899695718975e+01 2.662066069234889198e+01 8.796799785031760166e+01 1.101986055052636004e+01 6.034916572722073624e+01 7.440513755058350398e+01 9.419667078810221028e+01
3.724304106535359438e+01 5.221863737756351043e+01 1.606944591886204421e+01 1.167500604277215359e+01 -4.341765453744524450e+01 3.386429578321214962e+01 2.800097891100531200e+01 8.944082090760987569e+01 1.156960998041751409e+01 5.968955522617584109e+01 7.363079772781878773e+01 9.377968293476591555e+01
4.067645806860391389e+01 5.564810953075936339e+01 1.514578654956793891e+01 1.367627360957187577e+01 -4.571340407818854601e+01 3.401979326224679312e+01 2.864282131612036508e+01 9.105697621432466349e+01 1.381723069185889408e+01 6.100871976793501972e+01 7.507420222443133184e+01 9.424210650960988289e+01
4.394215365916847560e+01 5.833003744409035107e+01 1.427576048193609282e+01 1.630778839336216635e+01 -4.906564976533592670e+01 3.470901022435332095e+01 3.002780144438482068e+01 9.236946171488972368e+01 1.477069358407852739e+01 6.161639432262650473e+01 7.554011064787106022e+01 9.370940189288579347e+01
4.861249067090825093e+01 6.085225167641488753e+01 1.237628203783041592e+01 1.957384052549702247e+01 -5.270795209002108805e+01 3.592858264114573785e+01 2.989833133604547655e+01 9.413806024973401065e+01 1.517097359116762867e+01 6.305124460720409019e+01 7.714659265701399704e+01 9.501612374754535040e+01
5.186794310761136018e+01 6.245300993513080812e+01 1.033968329254511431e+01 2.238332708588955455e+01 -5.526170748842223901e+01 3.603439906207713506e+01 3.013812875166857808e+01 9.461452797700019346e+01 1.486644966331468964e+01 6.290482921420630191e+01 7.675979876485646969e+01 9.557542290872733304e+01
5.744286675888039184e+01 6.475738945039179839e+01 9.077986760194349358e+00 2.477985830741556583e+01 -5.854409402197678958e+01 3.589078760524108702e+01 2.919741822657378094e+01 9.454775141374005898e+01 1.443935248789673764e+01 6.243520569726969427e+01 7.730564155061303211e+01 9.714590059271105815e+01
6.029581152712247416e+01 6.722155523017538314e+01 8.909451742229990145e+00 2.657234694852166612e+01 -6.215535661917464694e+01 3.753289022574035272e+01 2.745042533439193022e+01 9.357132319111472896e+01 1.290250153841884995e+01 6.025277032825330537e+01 7.596212585800246586e+01 9.605984183375004193e+01
6.298622219704397196e+01 7.062564159047508383e+01 1.049019228436580420e+01 2.728502965694555371e+01 -6.489301884672198639e+01 3.964848845603432892e+01 2.599938637166575717e+01 9.439120074462950072e+01 1.318095097590287423e+01 5.846313282282435608e+01 7.548505854323363451e+01 9.536341608808149317e+01
6.292249170048416573e+01 7.329955302587890742e+01 1.270534394693729929e+01 2.612182617210710589e+01 -6.648226124056547803e+01 4.231573654897726300e+01 2.537885784113487730e+01 9.363266915040483696e+01 1.276516168446388733e+01 5.699270653924875063e+01 7.313327257773430290e+01 9.395134802592784240e+01
6.173224410969783094e+01 7.587055486618523048e+01 1.522407573411862280e+01 2.386783344174797250e+01 -6.735738901344186047e+01 4.554742242086487636e+01 2.392772658135048403e+01 9.432655059236599016e+01 1.394185689646468518e+01 5.634120660848508066e+01 7.235662047379112494e+01 9.414943631110025990e+01
5.900994893305362865e+01 7.679770383352756369e+01 1.869762220865547064e+01 2.026726668151743382e+01 -6.604324287988929143e+01 4.769050244473880440e+01 2.484725699945823862e+01 9.436083369145880795e+01 1.465786867830670559e+01 5.570586862933622285e+01 7.095759884468090206e+01 9.378147478311016982e+01
5.783413789593761578e+01 7.577661214121894773e+01 1.977440520711065375e+01 1.854921358721332680e+01 -6.461234068906284733e+01 4.822170694577742012e+01 2.573757867923947629e+01 9.629033349539213305e+01 1.596880962595781739e+01 5.696690862529433019e+01 7.113044514905095639e+01 9.495952586427441133e+01
5.412446030147202691e+01 7.233950905389620800e+01 2.029252279947382931e+01 1.682176826927735291e+01 -6.224258970769627552e+01 4.646679915511700898e+01 2.689234430108168183e+01 9.559025243352850509e+01 1.664169310895158915e+01 5.766452303263802293e+01 7.087033765797015405e+01 9.494780248930358368e+01
5.352885936909652997e+01 6.985312451785404164e+01 1.763708024818349074e+01 1.794874825909495542e+01 -5.976760987310306206e+01 4.362187416740018620e+01 2.770728466541080337e+01 9.714798381671174354e+01 1.797157765024468290e+01 5.830329438513061291e+01 7.049167131887742244e+01 9.505842641036825569e+01
5.100080821761207517e+01 6.563556320418939549e+01 1.455570424738710678e+01 1.860911425510628803e+01 -5.716623046259163488e+01 4.058084183572579917e+01 2.893671440306763287e+01 9.678138467876712525e+01 1.865805299591928801e+01 5.700486586302828584e+01 6.820792945451907485e+01 9.498872820397029670e+01
5.133666980616050068e+01 6.193220397763663243e+01 1.224509204985826294e+01 2.009336704360973869e+01 -5.488675454773190410e+01 3.753009671626360699e+01 2.901469718011146881e+01 9.657155007412825398e+01 1.931652545261032117e+01 5.645036868736702473e+01 6.660841958249837091e+01 9.427075675012095246e+01
4.850174281755658967e+01 5.767012735765052867e+01 1.125062292411993958e+01 1.910625790964661164e+01 -5.134536786322109236e+01 3.539696607370223091e+01 2.832620944653087491e+01 9.477429094762203476e+01 1.796203696706083974e+01 5.420626846566454304e+01 6.412038902981244348e+01 9.387725010847276508e+01
4.643947299707168952e+01 5.382713717737002668e+01 9.490591712543123393e+00 1.896551485761175826e+01 -4.878559749000935142e+01 3.266937276350736141e+01 2.704055651331687216e+01 9.535793954289174224e+01 1.816726498367217246e+01 5.332334749453702472e+01 6.340884394190174334e+01 9.337464815043631461e+01
4.490760412642583788e+01 5.116278468987353989e+01 6.615623780726169301e+00 1.970833245927968491e+01 -4.609119610442796500e+01 2.959621260623159245e+01 2.704306967593969091e+01 9.390223188206815053e+01 1.714261431745792663e+01 5.138435825499927034e+01 6.125968881554657486e+01 9.273336584753303669e+01
4.586982617229194403e+01 4.952379980430454509e+01 4.246838772438142229e+00 2.081993900001001663e+01 -4.531001897973051484e+01 2.646491745145780072e+01 2.691931091847131086e+01 9.420181865976753954e+01 1.621836740677229471e+01 4.939508997683689273e+01 6.020598778270935014e+01 9.324527962304043172e+01
4.670010369132035777e+01 4.866307337800245847e+01 3.192102603555946772e+00 2.256338943189654600e+01 -4.480764841354823602e+01 2.581749042731821930e+01 2.771202373015887588e+01 9.378182550651969507e+01 1.649359669603397194e+01 4.810345978382586196e+01 5.986516211547979083e+01 9.273493133738854510e+01
4.729509217315728620e+01 4.927450814161332460e+01 2.848631802711375727e+00 2.259917034693259197e+01 -4.506743137839453084e+01 2.607039994415983131e+01 2.958889689890675001e+01 9.419099152134859310e+01 1.875605787866979313e+01 4.723328666529867803e+01 6.008159551422848210e+01 9.391880412203472872e+01
4.596595303259665855e+01 4.936103444534801099e+01 3.798540605727873665e+00 2.077384738919765539e+01 -4.636135207792527524e+01 2.667265754791856480e+01 3.088977448647225543e+01 9.447461235263288870e+01 2.040585449131937423e+01 4.690495076338017100e+01 6.062668672512946699e+01 9.472976186010221511e+01
4.674880250979719420e+01 5.193264044565394499e+01 4.844035791684678571e+00 2.199623548320999689e+01 -4.803864492808897779e+01 2.721120949089038987e+01 3.177084005776947606e+01 9.613127934953422482e+01 2.281685807495182061e+01 4.638863426839349557e+01 6.130758957945149490e+01 9.454867130382818630e+01
4.911469839852890118e+01 5.252743769040957034e+01 4.446949529994228989e+00 2.247248527878837265e+01 -4.930864158586103230e+01 2.681319448899705549e+01 3.209621807540821692e+01 9.580424887661862954e+01 2.367704121957711649e+01 4.506931048020911135e+01 6.004473747959535501e+01 9.223225051013507425e+01
5.270562083479858728e+01 5.417549901751644370e+01 2.296763858851639917e+00 2.549925619694594303e+01 -5.113575739351855987e+01 2.720743091853722362e+01 3.258809129763513113e+01 9.615670251147956549e+01 2.493513694660031632e+01 4.428585788130741463e+01 5.937567117415377993e+01 9.057431136043499009e+01
5.369729037187265419e+01 5.300415063123006831e+01 1.199328468845921591e+00 2.756943810065324740e+01 -5.152744438713012443e+01 2.614057538179153894e+01 3.400573086476283891e+01 9.655229207508351408e+01 2.560093977175156610e+01 4.382198544398050188e+01 5.804740922111911061e+01 8.889459776653386314e+01
5.492408638057955983e+01 5.315505584535833350e+01 2.582664724547460988e-01 2.896339890396012962e+01 -5.234543768641987782e+01 2.525722072640115101e+01 3.391870458976221414e+01 9.733961032804717206e+01 2.766020700926967990e+01 4.413433875015815033e+01 5.735975445672706030e+01 8.916834066477495924e+01
5.561501972014757911e+01 5.270159822176351128e+01 -1.558117257050095628e+00 2.959978370048179031e+01 -5.226963701694291586e+01 2.480502298919488169e+01 3.408641117040459534e+01 9.668417113152659681e+01 2.890660210875960701e+01 4.393049599271378725e+01 5.610740217455882117e+01 8.885646298170324542e+01
5.757204225129053299e+01 5.526380508028142202e+01 -2.316846357338406381e+00 3.102476388473589708e+01 -5.560477203729540463e+01 2.577777296769871285e+01 3.394056951518916776e+01 9.732568373861175814e+01 2.830733716897979946e+01 4.337395504371905020e+01 5.464836130119439161e+01 8.848953378230666544e+01
6.029108876083845558e+01 5.906400475372777237e+01 -4.360140168590968535e-01 3.086847871381538155e+01 -5.808399167845792732e+01 2.805619070463689368e+01 3.343567771788131893e+01 9.607555474539296370e+01 2.785563723430822236e+01 4.213854383523790403e+01 5.223154948281061394e+01 8.694068104409048203e+01
6.208959423671615241e+01 6.319639300441295404e+01 2.212715143251531291e+00 3.118978640862520635e+01 -6.165932638975207425e+01 3.232536423784058144e+01 3.135747755241556689e+01 9.465365646712430703e+01 2.745007935102015395e+01 4.056598620864824056e+01 5.061346678897282203e+01 8.651452690340066454e+01
6.252329256976479854e+01 6.715009661991274470e+01 5.480437109717001043e+00 3.017037194361622454e+01 -6.342059384331121663e+01 3.527129149388201057e+01 2.948897355598449010e+01 9.292631243612696323e+01 2.602127951194924194e+01 3.900450091752028214e+01 4.827168649288988433e+01 8.482583030993922080e+01
6.347493093755630156e+01 6.981239523093938715e+01 8.227635839331243872e+00 2.865178321567483621e+01 -6.508835316768887935e+01 3.846744913828739243e+01 2.800050983742964661e+01 9.183459413562313500e+01 2.536940301920089880e+01 3.834908684178986960e+01 4.654837211002152486e+01 8.594816298634442830e+01
6.117215269007182599e+01 7.077207451690307494e+01 1.090020608106450695e+01 2.617306739291674589e+01 -6.490867769079017080e+01 4.062772928610617384e+01 2.804529720365787071e+01 8.902911629064874433e+01 2.469228161189077397e+01 3.777290330299606325e+01 4.499714740633735488e+01 8.651592526248337833e+01
6.045531478482967458e+01 7.050862053981794020e+01 1.089500231730672297e+01 2.539678617202293509e+01 -6.380803771759126874e+01 4.123880582860623889e+01 2.857642781905164142e+01 8.849686036076938933e+01 2.593745571359090007e+01 3.817589965518814665e+01 4.438364701603192941e+01 8.876607385794470417e+01
5.822591921286288397e+01 6.836337339732270379e+01 1.125085657043100973e+01 2.390613015419998177e+01 -6.106260940896738987e+01 4.018664686861648505e+01 3.002554649177443480e+01 8.690438423891234265e+01 2.661424671533135111e+01 3.790024488724774443e+01 4.370882941740702421e+01 8.965029905331137172e+01
5.798592530820937441e+01 6.588843575333261526e+01 8.842103913256895709e+00 2.546772816425483654e+01 -6.049502615566841968e+01 3.806471843701140756e+01 2.983352672355227142e+01 8.717037758242946666e+01 2.793777393654937669e+01 3.738075535406458272e+01 4.431439411500322478e+01 9.099031386111411734e+01
5.799064564964233881e+01 6.192125359224964853e+01 4.328466605887431484e+00 2.821459358392221617e+01 -5.833222008540993642e+01 3.297928024610381215e+01 3.084512723055570049e+01 8.687530409797425079e+01 2.862383585762588467e+01 3.679285652014674923e+01 4.301418435706663246e+01 9.085919791534767853e+01
5.794897520971684912e+01 5.654834726329937666e+01 -1.794961731135877647e+00 3.147358974529948483e+01 -5.593840995865531340e+01 2.837820367001880584e+01 3.165946895544107420e+01 8.642084218032815102e+01 2.990848165723542706e+01 3.649374461407155934e+01 4.307717618594202236e+01 9.180671443637370999e+01
5.881953979115491649e+01 5.082838231065568380e+01 -6.210186895362331150e+00 3.357869868222696397e+01 -5.243565649943441542e+01 2.209479492106306608e+01 3.295348144018986858e+01 8.574715224632531374e+01 3.069240824196372941e+01 3.561790081549468567e+01 4.295578317701463078e+01 9.274775647456945649e+01
5.776773735731409687e+01 4.697474390195319671e+01 -9.432885580603185716e+00 3.431204109896719956e+01 -4.989309563292046334e+01 1.857730170077869047e+01 3.291928783559158234e+01 8.556645892868793624e+01 3.118733998253364348e+01 3.640989465570923755e+01 4.238100511543261462e+01 9.318955845159622697e+01
5.522833140716220157e+01 4.410280289200530746e+01 -1.100597320623008457e+01 3.300947724723298649e+01 -4.708121494386643491e+01 1.627763552600546504e+01 3.316538309373892446e+01 8.395944065608614437e+01 3.089247907277023231e+01 3.490173533755463353e+01 4.116046408719903837e+01 9.224210645634411776e+01
5.359779702642162391e+01 4.337988951158639139e+01 -1.025342974260270879e+01 3.316539870043774840e+01 -4.644034258142261962e+01 1.593286650490903078e+01 3.212832388627531088e+01 8.288061620515631489e+01 3.040504229380406542e+01 3.526375466021729466e+01 3.958386400055786680e+01 9.051443017136854507e+01
5.254623178957572804e+01 4.268704983902533456e+01 -9.868387960206440823e+00 3.209848587527036301e+01 -4.556221419938691497e+01 1.602601516111646163e+01 3.203821014082291896e+01 7.941842056747805145e+01 2.975831381589956237e+01 3.405221232808649745e+01 3.806552860200804389e+01 8.968563558308284200e+01
5.463586962018172954e+01 4.389015534845766808e+01 -1.010970710837746900e+01 3.262156178421064823e+01 -4.770063732023165670e+01 1.595810265473899570e+01 3.130154033253197809e+01 7.754437316527526036e+01 2.958391178844061997e+01 3.350122242516825821e+01 3.667725979568375294e+01 9.032108625104618227e+01
5.706978500299897661e+01 4.525988752842647500e+01 -9.892499920953349957e+00 3.453021944059175752e+01 -4.932622484165201371e+01 1.665876154693840761e+01 3.017517477485289845e+01 7.608035641575432351e+01 2.789192264912766461e+01 3.126127592995311844e+01 3.493891448181951631e+01 8.904022247805399104e+01
5.994975406222368974e+01 4.782102098279251123e+01 -1.011631845030066401e+01 3.593060468624128845e+01 -5.177405173931717286e+01 1.787266127578904928e+01 2.934973341615632592e+01 7.466186219548156089e+01 2.762843507235353258e+01 3.037979197775866780e+01 3.447059582359767660e+01 8.849742997092833718e+01
5.990421510556969054e+01 4.863984116149829617e+01 -9.857648309900040928e+00 3.602100207756740957e+01 -5.271583683660514197e+01 1.863386080892904673e+01 2.739984966107377318e+01 7.301761647462396354e+01 2.515339566263439863e+01 2.842825812980742484e+01 3.307997137717363501e+01 8.629302444492155644e+01
5.952534671407221367e+01 4.931873909746269646e+01 -1.023182805946523288e+01 3.538751637337615819e+01 -5.261906597305542732e+01 1.995954269374297141e+01 2.686482275666221042e+01 7.171475891159849425e+01 2.449591960280179492e+01 2.654866699000434238e+01 3.169521746759358294e+01 8.530740457243845754e+01
5.737387743652088545e+01 4.805826895082119421e+01 -8.503228344022044638e+00 3.353074671269952489e+01 -5.024905633679126282e+01 1.987009308798551643e+01 2.646858945919482409e+01 6.997624791954089574e+01 2.230680160750590701e+01 2.439541835998685215e+01 2.995673940110630440e+01 8.414073177583226482e+01
5.497615200939490876e+01 4.745725442486349266e+01 -6.502638150520076543e+00 3.076722244624011537e+01 -4.874132325719381953e+01 2.083655373399992428e+01 2.502608956289518005e+01 6.878330770907265901e+01 2.071166690340152883e+01 2.255619475781939087e+01 2.886234893457867656e+01 8.334592350899788471e+01
5.145404675870478428e+01 4.593629484913560646e+01 -4.428223200018512884e+00 2.832137084159826301e+01 -4.613312797071647964e+01 2.098933778495150193e+01 2.450179929184184147e+01 6.635097809416640757e+01 1.815690598440605186e+01 2.042549213869214242e+01 2.612901720194692601e+01 8.213544846004604949e+01
4.956259814645013506e+01 4.679068815022504424e+01 -2.591789819822702956e+00 2.660874188025467291e+01 -4.607552555305364450e+01 2.163237309041409162e+01 2.230615291268755840e+01 6.322518570991682907e+01 1.754822434595781999e+01 1.847568448222526882e+01 2.483217751511829263e+01 8.133617935786318753e+01
4.804333537581740643e+01 4.769548358526362364e+01 2.549764348026571370e-01 2.440627470355027029e+01 -4.591559293500625216e+01 2.346169988353566183e+01 2.134957620457299043e+01 6.009335314212712120e+01 1.460875945701012490e+01 1.718213718746310192e+01 2.212477911278602960e+01 8.019391341535123274e+01
4.686986984384908794e+01 4.880093925078276129e+01 3.228069479132616326e+00 2.198154798682460509e+01 -4.551596421748477184e+01 2.556936674373663010e+01 1.949146353796916742e+01 5.812061791088243723e+01 1.256885288795211864e+01 1.560391824858048437e+01 2.090669308870068477e+01 7.866931205855694031e+01
4.297081947573027350e+01 4.979849214639227739e+01 6.895670214814137111e+00 1.790479386998650568e+01 -4.338212282384340313e+01 2.742443473783034236e+01 1.751123736755249993e+01 5.508934822458395075e+01 9.763954617437054395e+00 1.407081886634297696e+01 1.742347721934886806e+01 7.633748526653347710e+01
3.830510772551078702e+01 4.946148970814633827e+01 1.123054525499988188e+01 1.402725033628485818e+01 -4.157698752779615603e+01 2.967388454438505718e+01 1.550368735654852870e+01 5.317442550538439860e+01 6.701525763419749815e+00 1.277397770463739413e+01 1.515949109881356449e+01 7.463171525342218615e+01
3.493576384380686761e+01 4.810053940131760442e+01 1.299755110152106141e+01 1.103676436173839726e+01 -4.000771941112814289e+01 3.013242484936428767e+01 1.286133164358898640e+01 4.998928528730048981e+01 4.405954936203855254e+00 1.022317721141803837e+01 1.058346091913675124e+01 7.237757107323423611e+01
3.570533435349988594e+01 4.731606806622162509e+01 1.247319379170638065e+01 1.227937290032563666e+01 -3.999199302890065866e+01 2.933812648737417561e+01 1.017136785706636637e+01 4.891964337569891796e+01 2.493260096691509276e+00 9.325668578819959365e+00 8.742321735607669453e+00 7.057072684485032710e+01
3.860364350229007613e+01 4.686006602509407770e+01 9.180396369649979960e+00 1.590539725474754285e+01 -4.124336032506820970e+01 2.756460778021405034e+01 1.003324731478649845e+01 4.668453098646295274e+01 1.709807865366253621e+00 8.773432984087218500e+00 5.467706510898556083e+00 6.902432195980152585e+01
4.284334573291351944e+01 4.648430069169035761e+01 5.452196510955340081e+00 1.951935211318479446e+01 -4.317999341548205905e+01 2.541837064177360972e+01 9.925365317564635248e+00 4.737098763383625766e+01 2.800410687443942948e+00 9.213937546770656795e+00 4.873749858899594223e+00 6.899995777692237198e+01
4.291256620083141371e+01 4.509681474919956656e+01 3.619927584484301963e+00 2.085315000227963012e+01 -4.216438975014652613e+01 2.419273272492065274e+01 1.009720575563128264e+01 4.668587997157372627e+01 4.343019698589451139e+00 8.759392477588631820e+00 5.654235158344091516e+00 6.965845789462193238e+01
4.200030378202411185e+01 4.381791374744889822e+01 1.887745033172124387e+00 2.050027436141117931e+01 -4.080968773218639711e+01 2.329382060526750919e+01 9.877095587047962866e+00 4.665408534140174623e+01 6.014039234257862354e+00 9.825050649666223990e+00 6.841716144534855992e+00 7.015877283118986441e+01
3.833474608969685704e+01 4.063136294945878291e+01 2.873826758689459027e+00 1.841804012531996904e+01 -3.759529790475846056e+01 2.222897972431063351e+01 1.018304878619096421e+01 4.549321559269871074e+01 6.504276771256326306e+00 1.070443877071106442e+01 7.661641489432772900e+00 7.048069187590731133e+01
3.745777610118931022e+01 3.836891260248634694e+01 2.925747786316913235e+00 1.715133767001275800e+01 -3.548465206854059772e+01 2.124946279216379708e+01 9.172437782163363806e+00 4.646574235963799282e+01 7.979580959521167749e+00 1.113982146312563870e+01 8.767139405278609132e+00 7.197391664049891347e+01
3.590640816818316949e+01 3.845831975347381615e+01 3.698348091201926202e+00 1.700869148277458720e+01 -3.466426741258385391e+01 2.081016219484343210e+01 8.931348968646158681e+00 4.556274330233366499e+01 8.480936861012880357e+00 1.148289631613146788e+01 1.038090188674947001e+01 7.250360546070791656e+01
3.685446103283361907e+01 4.040391155907202858e+01 5.270002637102550125e+00 1.631635174376497233e+01 -3.640927031509790623e+01 2.226981806709633815e+01 9.630209556613728239e+00 4.638501073358779081e+01 1.055240289979708379e+01 1.297479204323655466e+01 1.190835019572644882e+01 7.451405613160196140e+01
3.749795203098727825e+01 4.442658235959635249e+01 8.393100303394112061e+00 1.585494071725636722e+01 -3.972674165652760792e+01 2.589793915102093891e+01 1.085305554942052098e+01 4.621768806267952101e+01 1.301560918076372353e+01 1.350560171331949633e+01 1.323922540178478613e+01 7.707327058256362307e+01
4.014225375794841710e+01 4.924054627543159057e+01 9.766910385212099754e+00 1.605021708896144972e+01 -4.414409140273404120e+01 2.938861807741067977e+01 1.160542289259770499e+01 4.824102146143673764e+01 1.585847908132959461e+01 1.501205762634545415e+01 1.511944937144551915e+01 7.977030925038312148e+01
4.387740889283046641e+01 5.332438851066336838e+01 1.140064033692417844e+01 1.658873902513451881e+01 -4.778437752714519604e+01 3.206745609277778186e+01 1.293014324108516888e+01 4.823087300677696021e+01 1.651245032088320031e+01 1.486952493926253638e+01 1.483502036110710343e+01 8.067114531615008843e+01
4.738719115113303104e+01 5.898341580110143667e+01 1.291985281746056380e+01 1.778435783793049296e+01 -5.208885110938714291e+01 3.535258343233167011e+01 1.290794807073633343e+01 5.028493377512475604e+01 1.799749401042165786e+01 1.515392247956212479e+01 1.459342313607929142e+01 8.119727458032646439e+01
5.062410479508847061e+01 6.342050165233526116e+01 1.356606671275456932e+01 1.935818901485827226e+01 -5.582763989571663643e+01 3.804472235328655927e+01 1.367461160907279805e+01 4.959509653697798370e+01 1.840934998560479130e+01 1.483381486251807146e+01 1.290647531361524791e+01 8.088374358440310630e+01
5.525873139532500034e+01 6.884631238683735432e+01 1.495935515808980298e+01 2.090704982365087972e+01 -5.998050163516900568e+01 4.142307707071103096e+01 1.534034747540000510e+01 5.040842265108055642e+01 2.068208743023117435e+01 1.518220958414809552e+01 1.322248260466119518e+01 8.047060352538902350e+01
5.850747668028634507e+01 7.414373836361029646e+01 1.485112267369939332e+01 2.218817204715428915e+01 -6.451340434376086819e+01 4.333744307559165776e+01 1.760557157150522301e+01 5.010312536078076562e+01 2.215430954664865837e+01 1.477066152086104189e+01 1.271021728657331096e+01 7.967797062717662016e+01
6.459459938109753807e+01 7.998217687305429990e+01 1.581954153487815518e+01 2.471887422377114163e+01 -6.969901185189247883e+01 4.619455984849452079e+01 1.926668895354612232e+01 5.299898386905626069e+01 2.544101118572087827e+01 1.582259958523097865e+01 1.389227541201469940e+01 8.029862241486308960e+01
6.903051803726957303e+01 8.493884475614542851e+01 1.641730261247758804e+01 2.571962998174517523e+01 -7.531026041794221726e+01 4.963756738706538130e+01 2.226257233504307820e+01 5.325881919830090538e+01 2.727053323838928023e+01 1.659090898274679660e+01 1.451215428409743602e+01 7.967174387134909352e+01
7.176370101525266421e+01 9.181876175328572742e+01 2.041761771694529060e+01 2.561577886063221499e+01 -8.024512723347960730e+01 5.540835802172883717e+01 2.506048247031580800e+01 5.584472410219486704e+01 3.028813543089010452e+01 1.839992983083031319e+01 1.649516961295244144e+01 8.090535347026903423e+01
7.209964298732495536e+01 9.639580949681224809e+01 2.572490187062323841e+01 2.342743291249349014e+01 -8.319258963755471825e+01 6.071752501718759731e+01 2.839437317029617347e+01 5.696163917524678055e+01 3.300952740395866414e+01 2.112600357674054408e+01 1.897887133578716146e+01 8.153362968073791706e+01
7.076753899303923845e+01 1.009012442974608490e+02 3.071332487094248620e+01 2.110875359526682971e+01 -8.447502229734209322e+01 6.512311253045427861e+01 3.031407719694086467e+01 6.061310732352453812e+01 3.647325195920650742e+01 2.360392748025724430e+01 2.236322509223350252e+01 8.292360506689205124e+01
6.840269936052159494e+01 1.002292082377856985e+02 3.384761920614398178e+01 1.747491301570944344e+01 -8.254542907366217719e+01 6.706622791336589273e+01 3.323934442028191683e+01 6.207031126036533664e+01 3.768092721899539299e+01 2.589047852153251483e+01 2.501658857834812011e+01 8.353599186453816117e+01
6.611338667462996455e+01 9.835986847827616941e+01 3.406769986480981061e+01 1.631258019160674877e+01 -7.939967558326902974e+01 6.577633091769365592e+01 3.596311483795759045e+01 6.548918392394186583e+01 3.934681495544619878e+01 2.948566863764724744e+01 2.827177502038012946e+01 8.487555935244959926e+01
6.256587034721794538e+01 9.308316110492273765e+01 3.280530441055311996e+01 1.521887103453121171e+01 -7.486376894368498824e+01 6.276367699226185692e+01 4.059729170269046961e+01 6.724886850633171775e+01 4.212767867301617741e+01 3.123845738394969018e+01 3.169624085616835174e+01 8.613767474267447710e+01
6.008814131706395045e+01 8.983021999513324829e+01 3.028832351586410354e+01 1.428732028779009156e+01 -7.176546749504861111e+01 6.042555116327295650e+01 4.501728576307123575e+01 6.962985010317530055e+01 4.459766349532009855e+01 3.428374840254622313e+01 3.547810430537688120e+01 8.875147849964473323e+01
5.701617507267901175e+01 8.780863263419608700e+01 2.987159553552206148e+01 1.388827300944666021e+01 -7.060966775480784463e+01 5.972094344396467847e+01 4.828047743393889846e+01 7.184787993460651023e+01 4.685495566850339344e+01 3.645305040347172110e+01 3.790973078868545798e+01 9.007724241499737161e+01
5.781637158178357083e+01 8.936274953018762801e+01 3.119628561581296466e+01 1.351507403128146123e+01 -7.178667005446919802e+01 6.135865500705212128e+01 5.047916987660390475e+01 7.491795596655799727e+01 5.051036809602757671e+01 3.843731403335291930e+01 4.088585025092175584e+01 9.342676741674118546e+01
5.847922078591508921e+01 9.255891197255512282e+01 3.420138964448334207e+01 1.206211648949105886e+01 -7.379541851474085945e+01 6.399899474307162706e+01 5.195671739299172032e+01 7.546234585943558670e+01 5.216750108346009540e+01 4.049373687821391599e+01 4.140176116344129298e+01 9.527911832608258180e+01
6.106906411365325482e+01 9.764712852762620798e+01 3.711520644531795199e+01 1.198576681910759412e+01 -7.790701229426190366e+01 6.787474382013920149e+01 5.134853404947823208e+01 7.641071798662967751e+01 5.536779283105654770e+01 4.175315069486607911e+01 4.361922868148402443e+01 9.764989101821284123e+01
6.474413099769104463e+01 1.036188421915144033e+02 4.012490763132443305e+01 1.263584655397923306e+01 -8.301855364900490031e+01 7.180349590749035826e+01 4.984842330953004819e+01 7.564744109632133018e+01 5.726012707933370649e+01 4.329675225116281467e+01 4.521430907790187348e+01 9.913703421739617738e+01
6.896355383591455279e+01 1.113807864503517351e+02 4.378085691180933026e+01 1.313811026315872610e+01 -8.893147580592039958e+01 7.644006512950409160e+01 4.557685356124481757e+01 7.579341800671485885e+01 6.026831198256514455e+01 4.546297282472765033e+01 4.766393849265833182e+01 1.023522369566641430e+02
7.277766754343537059e+01 1.175642325541551969e+02 4.733917468123627259e+01 1.352773911469081725e+01 -9.325983368230929216e+01 8.227598796025237959e+01 4.042677715526023974e+01 7.377644453027275517e+01 6.237911465796012322e+01 4.802949866672076240e+01 4.917503524181346108e+01 1.043236686115021854e+02
7.682995585319561371e+01 1.260089115944523428e+02 4.999166171461921948e+01 1.421906801315911473e+01 -9.928212531341124247e+01 8.771000130760030800e+01 3.437952203563304465e+01 7.388257732054481153e+01 6.461151771726360948e+01 5.063303018206043760e+01 5.171858857396389908e+01 1.066072750874112387e+02
8.199771356361701180e+01 1.332876047061005806e+02 5.279715797306848657e+01 1.489669898812684856e+01 -1.064717600723640061e+02 9.243741634040515009e+01 2.559559510949025096e+01 7.057259745263823447e+01 6.508865506421136615e+01 5.230459912004052825e+01 5.260175819371567485e+01 1.076921880623871459e+02
8.843871510574273032e+01 1.422901101744995742e+02 5.296631224120361736e+01 1.842858791128151452e+01 -1.137126323487985502e+02 9.723892609931296249e+01 1.665008577250385713e+01 6.821512823961802496e+01 6.499607811111492595e+01 5.395694431101991029e+01 5.330116601420245104e+01 1.082513056653605332e+02
9.462947892974310093e+01 1.468139061261771872e+02 5.264359461519222805e+01 2.127253757757372910e+01 -1.189056908274267812e+02 9.880592716071241455e+01 7.535627557365048190e+00 6.451121092324005701e+01 6.448982531466361934e+01 5.449624106890261288e+01 5.268646341530380539e+01 1.071999898499417299e+02
1.023302893061563310e+02 1.505510051543795100e+02 4.931865917952076472e+01 2.753715272511084322e+01 -1.250706361018375645e+02 9.921187047354632682e+01 -7.474967451776287630e-01 6.224450523553944947e+01 6.250898154168645249e+01 5.592835199649643840e+01 5.338202229412863176e+01 1.064097156438079566e+02
1.075094367474911650e+02 1.510164260006646089e+02 4.458403330705800016e+01 3.232503993345023474e+01 -1.280149690248485115e+02 9.770542341035270795e+01 -8.120749874652602784e+00 5.852267905393934910e+01 6.128551783508599726e+01 5.599899894277226764e+01 5.199536548510238276e+01 1.051626408904337779e+02
1.120757915060583088e+02 1.506257574169221414e+02 3.882102882113764508e+01 3.783607305204537852e+01 -1.301848384926605604e+02 9.502706673913927204e+01 -1.368131123144649131e+01 5.619342584922689809e+01 5.970177118164382790e+01 5.544002484162409417e+01 5.223053437512733410e+01 1.044547824144505057e+02
1.150382882888841323e+02 1.478356267885833688e+02 3.270004726949857599e+01 4.161114853936333446e+01 -1.297273007405691772e+02 9.118701403129456651e+01 -1.838421158916431253e+01 5.316438983575621791e+01 5.757013030564888112e+01 5.426084672282838284e+01 5.116271235482346214e+01 1.026480226875008981e+02
1.181652753213501370e+02 1.450261992046512773e+02 2.741752159658551946e+01 4.612295393217916484e+01 -1.302589764391148890e+02 8.723398068740917211e+01 -2.372269330228520801e+01 5.146541757883904467e+01 5.504182208572336776e+01 5.223771296685358578e+01 5.052129094787950692e+01 9.995350636571713210e+01
1.211683930830698017e+02 1.417040195152457329e+02 2.246637047349469896e+01 4.888053400889100431e+01 -1.298211471448195482e+02 8.308328361324417699e+01 -2.722987354370780722e+01 4.732115319911528672e+01 5.179223528448530089e+01 4.855187015575309317e+01 4.850802774384031579e+01 9.744993978418186487e+01
1.224580354485271840e+02 1.391750042424318394e+02 1.856780512797382343e+01 5.250551662648462781e+01 -1.291250227612618175e+02 7.987274215445208370e+01 -2.956506174798245468e+01 4.554880326870812013e+01 4.896910988308614066e+01 4.680780061511534029e+01 4.671600409787023978e+01 9.515567914974803898e+01
1.206294979475285203e+02 1.350291722034031352e+02 1.674738033966276518e+01 5.305618793731969163e+01 -1.256115729750819980e+02 7.688084401922992583e+01 -3.016468403853462732e+01 4.059505120307355952e+01 4.586982536026833657e+01 4.384148669956104527e+01 4.451071147766997882e+01 9.172754519818359142e+01
1.175008780952466054e+02 1.315289563503391719e+02 1.438346061099730910e+01 5.255829532964465045e+01 -1.227133587177681449e+02 7.398861916415161488e+01 -2.985695443773993318e+01 3.898871439046006770e+01 4.287831311097469467e+01 4.097840795827549698e+01 4.216257507704853680e+01 8.852414015337726028e+01
1.130045602029027805e+02 1.257566809181376897e+02 1.343396834630256720e+01 5.045865757325126566e+01 -1.171974226648273429e+02 7.027922003571258358e+01 -3.022171635829982250e+01 3.559953568061492746e+01 4.008498411754433022e+01 3.788028294865789292e+01 3.869001998642121976e+01 8.394555985825888911e+01
1.089118834989762661e+02 1.200519963223499076e+02 1.155136633503942889e+01 4.888040792933117729e+01 -1.124180438307488856e+02 6.617299437758188674e+01 -2.869865469358675725e+01 3.330228795112319773e+01 3.552239869166369601e+01 3.439745819100292579e+01 3.566469836994757969e+01 8.001326507517977404e+01
1.026322628779450810e+02 1.124987198299274525e+02 1.027779529374931045e+01 4.567201627722415225e+01 -1.045769333776117804e+02 6.229738251821324013e+01 -2.658000478659302601e+01 2.943652405725885757e+01 3.174697018154195760e+01 3.007996875870455256e+01 3.018531710487669883e+01 7.343964480218461688e+01
9.708066192966471419e+01 1.044725422586007255e+02 8.788650532206682797e+00 4.431827630988740196e+01 -9.996480202618062094e+01 5.762501179337453294e+01 -2.461386051264887698e+01 2.801096043331115126e+01 2.839536917283028217e+01 2.634031127446628773e+01 2.651240727470454672e+01 6.891169571344215683e+01
9.012806080977750867e+01 9.641646418266891772e+01 6.379305373725903117e+00 4.275048658633842535e+01 -9.240880897272913330e+01 5.247017045527797308e+01 -2.265078902045227593e+01 2.460797728034819087e+01 2.473450722930210333e+01 2.217778389136744721e+01 2.129701701667779190e+01 6.198219623094598774e+01
8.266333526898011996e+01 8.853840674831280921e+01 5.935404997056341614e+00 3.954245986674909830e+01 -8.470502935556709190e+01 4.759582037176968328e+01 -2.050571800849298754e+01 2.279832468001745838e+01 2.146485383939462110e+01 1.774649859417052156e+01 1.744727440065302204e+01 5.601492366920086852e+01
7.437410190132976595e+01 8.039423816308462278e+01 5.925288073738428807e+00 3.439107506257527547e+01 -7.562403847412491587e+01 4.293720456938922325e+01 -1.935494081403887279e+01 2.046884947804188926e+01 1.762327338589430425e+01 1.237545756708672329e+01 1.235160632862227281e+01 4.903223641266079369e+01
6.601885103781138753e+01 7.301592945351663388e+01 7.150005645416498190e+00 2.983732049673676556e+01 -6.754302083067327089e+01 4.059684155206181089e+01 -1.721457147502851370e+01 1.816881360402247836e+01 1.513579123891514655e+01 8.138143611832044044e+00 8.880379210003022550e+00 4.339090970302226680e+01
5.715601355731250521e+01 6.742160776225627217e+01 9.548094184399868567e+00 2.361734992361985164e+01 -5.984658822554861501e+01 3.858824108541998044e+01 -1.320280739480424259e+01 1.578454619211384546e+01 1.229775288345406814e+01 5.461199786692415792e+00 5.883896817675976720e+00 3.918913090732288396e+01
4.983738236364178675e+01 6.217748551116316946e+01 1.119732474062202598e+01 1.931240291397225306e+01 -5.417795017884358799e+01 3.672869832529672607e+01 -9.296316781378518357e+00 1.577846555595470690e+01 1.091425958228516713e+01 3.168436768637051149e+00 3.504895499929272518e+00 3.529038768347434285e+01
4.115163423893245920e+01 5.514699672896289684e+01 1.361794900541749520e+01 1.453841419401397950e+01 -4.645741461861047128e+01 3.401589436954309775e+01 -5.242914433532209983e+00 1.388020614089203164e+01 8.335377390791013141e+00 2.848976925944667893e-01 2.250925049106231590e+00 3.170159123495117726e+01
3.446954904696789157e+01 4.780904157992249282e+01 1.410834017729583323e+01 1.023871718740588577e+01 -3.922101902394076234e+01 3.045420792208516403e+01 -1.226372497015027374e+00 1.372179382655123980e+01 7.409982734837565310e+00 -1.046863839636924975e+00 1.323874452061142293e+00 2.968869710601913425e+01
2.639799612591063038e+01 3.874587959496343359e+01 1.346250176521677488e+01 6.141730446513236963e+00 -3.168089714158250914e+01 2.551590974014562363e+01 2.150106322398515957e+00 1.198003090017643757e+01 6.282041036662709743e+00 -3.733105287208302148e+00 8.332084545090571170e-01 2.759061800243709683e+01
1.917035705475993268e+01 3.043615782259525915e+01 1.167690656045810016e+01 3.484285841226687719e+00 -2.331931512622200842e+01 2.123345951550929911e+01 5.011952219470361847e+00 1.107725274813388694e+01 4.758936976690867127e+00 -4.416907015573778850e+00 1.159614254864509419e+00 2.521320235792587283e+01
1.324383013080975857e+01 2.363429979664881486e+01 9.561398744318218235e+00 1.690081629213393333e+00 -1.732317692544868137e+01 1.721680370571217367e+01 7.570012693027095452e+00 8.782644184883801941e+00 3.142428781932605997e+00 -6.545411538240120564e+00 4.018993137301719032e-01 2.121036941488269179e+01
9.838132391141821032e+00 1.906593726860496574e+01 8.667839116216564221e+00 9.036970884293804573e-02 -1.320259759790302745e+01 1.430321951150657611e+01 8.711611936381439492e+00 8.349436639194749432e+00 1.871137303186694245e+00 -7.577683145438062873e+00 -1.327379573787421441e+00 1.736725201628157578e+01
8.525895499462148308e+00 1.699543049303065345e+01 9.924355336876027778e+00 2.470637985556291272e-02 -1.085047014891317119e+01 1.398557113875973101e+01 9.136898880352276819e+00 4.459147848877588416e+00 3.324674789261082564e-02 -9.321057657108330119e+00 -2.779598672908143886e+00 1.321910448353064460e+01
1.038166434352988432e+01 1.705199047190220796e+01 8.913864171034230566e+00 3.341100678568252880e-01 -1.167950070575625965e+01 1.351404636093861811e+01 8.914106136010845560e+00 2.499365388128913512e+00 -9.588595850325917214e-01 -1.139487377846233152e+01 -4.181374379818468157e+00 9.311126682009211564e+00
1.282781062776179049e+01 1.705885935857302371e+01 5.980651682268924851e+00 3.559530273955494373e+00 -1.320015650425782994e+01 1.165583228506612734e+01 8.626352122153951640e+00 -1.587786534740001754e+00 -3.683869717453688075e+00 -1.279920987494676687e+01 -5.951611189273017466e+00 5.819749270417049480e+00
1.577068603620889853e+01 1.587820027978311366e+01 2.510666510028300547e+00 7.329979457586902392e+00 -1.501628803237302989e+01 9.660114810853826839e+00 6.490398570401801237e+00 -2.999510363777572852e+00 -5.070562338877818931e+00 -1.360893338913109751e+01 -6.481218885424604004e+00 3.021356864117978436e+00
1.596642134312128825e+01 1.356955766790567530e+01 -2.044795577525267305e+00 8.775718824549464614e+00 -1.445433624537756678e+01 7.650995667283859270e+00 5.359482602988906663e+00 -5.190107407988794996e+00 -7.144043169778410807e+00 -1.425690556172535040e+01 -7.376703671446753319e+00 9.328604706926819645e-01
1.563927562131436844e+01 1.112915398275563561e+01 -3.344538457663667419e+00 9.160410959820126209e+00 -1.220129376496322138e+01 5.620968609768937974e+00 4.215359587419509779e+00 -5.257659171356283245e+00 -6.746660248627933676e+00 -1.329893997404112405e+01 -6.159492838891882371e+00 1.134857709556433170e+00
1.307640074778589678e+01 8.470751247662230199e+00 -2.265655527553334103e+00 7.914276223944979094e+00 -8.857370320778271022e+00 4.194893082482801461e+00 3.961297243558214110e+00 -6.076919183701932958e+00 -6.833910302209173615e+00 -1.191504049066893245e+01 -5.496048894749451463e+00 1.342995686877772599e+00
9.433490353993175148e+00 6.227711703160754730e+00 -1.375749477346569716e+00 4.890551780311250596e+00 -6.017642653056811675e+00 3.448196607669865799e+00 4.011198278412782869e+00 -3.614217909713163923e+00 -4.269709488754303450e+00 -8.919233338214443307e+00 -4.213755392075626993e+00 3.033273875005907172e+00
5.246240658054966310e+00 3.354879447461617481e+00 -3.102619024187631136e-01 2.616119989427814652e+00 -3.586558926974795281e+00 2.206807015468001953e+00 3.979607296008162542e+00 -4.106690989379527146e+00 -3.661099335940403154e+00 -6.106479509587976473e+00 -2.918943807770102872e+00 2.769263763167621573e+00
1.735552216142210336e+00 1.812647140325552408e+00 6.910600464338731985e-01 1.081821929988597830e+00 -1.048616586393328776e+00 1.485059641412264542e+00 4.100108853077426119e+00 -9.642633912996407819e-01 -1.362221478092432214e+00 -2.807436952953352716e+00 -8.785814538107473703e-01 3.370631391022770984e+00
8.408283985466229460e-01 6.034234312337053430e-01 1.177056344786560516e+00 1.195051404676857887e+00 4.727666432503581651e-01 1.115219158890415063e-01 2.910918073371712378e+00 -1.422470454557989150e+00 -1.049552448085976586e+00 -1.168082423222307265e+00 -1.309171031684520869e+00 1.561320366483980759e+00
4.445430577150529250e-01 7.820479042633969868e-01 3.345497199869707505e-01 8.487648528469671216e-02 -3.162220088948024532e-01 1.035833292251021054e-01 4.632003391713049312e-01 -8.810461631997314191e-02 -4.365541577334630663e-01 -5.287842354502051423e-01 -1.559984637621843195e-01 3.483833075982950556e-01
7.165975756908756766e-01 -2.014479023502827038e-01 -1.760024709211124583e-01 1.214053261282637131e+00 -2.044961048873923382e-01 -2.339917246649314275e-01 -1.081368846613578460e+00 9.522314760320559346e-01 1.273198464009088759e+00 1.444937298521587810e+00 4.127975212147379502e-01 -7.135862731192879060e-01
4.783791740934280057e+00 3.587990428868522486e+00 -1.752167125777697176e-01 3.139622676539280732e+00 -2.493532218274098877e+00 8.640940308388722624e-01 -4.049429252923770761e+00 3.074718106980751209e+00 2.454803950486451836e+00 2.166666926461144005e+00 2.018701967453288670e+00 -2.025264407721874438e+00
8.232288596691917704e+00 4.225857151947689516e+00 -2.980845881460882918e+00 6.445720247865557972e+00 -4.752008603138815346e+00 7.374333125115001275e-01 -7.323196296522570314e+00 3.972175019680805441e+00 9.897607818562000892e-01 1.944097201192719782e+00 1.679061416502751314e+00 -4.770714989930975314e+00
8.583921772660147553e+00 6.903279018869360684e+00 -6.895345133619833478e-01 5.091855426781755511e+00 -6.735968563842820167e+00 2.596460029315913243e+00 -1.207829197935107857e+01 5.289659342844834633e+00 1.817136530431083363e+00 1.591397942850189873e+00 3.093760245441000034e+00 -4.647830048862687136e+00
1.018876420349564249e+01 5.567892338372745442e+00 -4.093178759678065326e+00 7.153476960936126616e+00 -5.941758119499111146e+00 6.656132773669570790e-01 -1.451187318945472704e+01 8.594455709838699775e+00 6.036715274361474926e-01 -7.533230875047548514e-01 6.977082282293055604e-01 -7.844009561553102472e+00
2.416438510826672825e+01 4.149298559458729940e+00 -2.048171929555476467e+01 2.348600014188879825e+01 -1.370854806903358103e+01 -8.508063068627139458e+00 -1.875677781678124845e+01 2.209158683107478538e+01 -4.116568318748535127e+00 -5.400117516887086744e+00 -4.017263608743812497e+00 -1.463824689312372485e+01
3.402469580692881124e+01 -9.819058926921584884e+00 -4.228831178776707844e+01 3.835537384156563689e+01 -1.048480842744764807e+01 -2.633766754353823458e+01 -9.382660589099987902e+00 4.254343038897679463e+01 -5.906315598700796698e+00 -1.558966014516250276e+01 -1.319045759934806306e+01 -2.885564693018490345e+01
3.063546778249509828e+01 -4.205796233249344596e+01 -7.115599049324347902e+01 5.140597747176384047e+01 7.201618089399573819e+00 -5.638491065392851453e+01 1.483676023019774526e+01 8.305431166909727381e+01 -9.616211753086004066e+00 -3.195283300568567952e+01 -3.121547848279008974e+01 -5.456467621075490371e+01
3.013033814940438759e+01 -7.227464603163925005e+01 -1.017767042135146767e+02 6.728675312061808711e+01 2.187504463141330646e+01 -8.777298682568525123e+01 5.566877474181428909e+01 1.427275391342199669e+02 -2.226193593417180941e-02 -4.572490661390190780e+01 -4.715368125890120865e+01 -8.326487719041398350e+01
3.967986663469366704e+01 -1.038489602042880477e+02 -1.411371449709102421e+02 9.051965929224152774e+01 3.319958352968014736e+01 -1.234989797158108189e+02 1.181988427698743180e+02 2.329523794400509757e+02 2.563913477275318442e+01 -6.135320652823330079e+01 -6.356394324542556973e+01 -1.184255719886746618e+02
4.887805491466129837e+01 -1.223469104585572182e+02 -1.684486337003541792e+02 1.093004404455467125e+02 3.766689606758992426e+01 -1.465664159271971130e+02 1.845957460539393367e+02 3.397695776530666762e+02 6.584148674989121730e+01 -6.575123332925623743e+01 -6.759894124524434744e+01 -1.491342105128037474e+02
5.830389264950910899e+01 -1.251382626890832341e+02 -1.825521694052578425e+02 1.214898904132951003e+02 3.442984999903219290e+01 -1.535560924990719229e+02 2.552952985231412413e+02 4.738314404931735453e+02 1.235610996827336692e+02 -5.885263046425228595e+01 -6.100288989934821871e+01 -1.769235607173811502e+02
7.650282207181849969e+01 -1.211427349280126009e+02 -1.957986636621349987e+02 1.374698807977666490e+02 2.359235757087795449e+01 -1.576684441845341667e+02 3.265826876947244273e+02 6.185848910225112149e+02 1.951135466394800062e+02 -3.875424395337109473e+01 -4.054011541216184611e+01 -1.960039212268986262e+02
1.051684734742755154e+02 -1.070565182091661569e+02 -2.107955765626848574e+02 1.590110017981158705e+02 2.539088681860800722e+00 -1.599401816546368025e+02 4.026724550121106745e+02 7.886972642552251500e+02 2.868643529305198854e+02 -5.068277542481583353e+00 -7.870095763354839846e+00 -2.085224350361942243e+02
1.450219784724649230e+02 -8.171711922418219842e+01 -2.263878691794095914e+02 1.858989040311447809e+02 -3.017624595900841200e+01 -1.549455188328879558e+02 4.757049465097220491e+02 9.663316649082455569e+02 3.949943921300487659e+02 5.166530563029346723e+01 4.955029400582765220e+01 -1.982206480181424126e+02
2.018625651052573744e+02 -4.220989069024533791e+01 -2.443701702590641673e+02 2.241194346926763785e+02 -7.861555667816396920e+01 -1.439011259377406020e+02 5.465540154499924483e+02 1.168428790744491835e+03 5.263688136618847011e+02 1.338207192818838962e+02 1.353329913524005690e+02 -1.607988216769755923e+02
2.695698091579658353e+02 2.121826789916467959e+01 -2.474453805844200645e+02 2.594455171222907666e+02 -1.441998382160463450e+02 -1.128629571419160555e+02 6.163777061891793210e+02 1.368377303954815716e+03 6.777543383226458218e+02 2.439058196632294369e+02 2.499853408279627160e+02 -9.433828549080230630e+01
3.511244185717216055e+02 1.163811204948974023e+02 -2.345071581600021204e+02 2.936338777583764568e+02 -2.323460835898663959e+02 -6.082712894902276446e+01 6.898104687362034610e+02 1.588553888076142584e+03 8.635186736525175775e+02 3.870788444454796604e+02 3.984325839694477054e+02 6.326753327848951614e+00
4.403332894600477516e+02 2.223164272910020429e+02 -2.169479060725173269e+02 3.289189933906997680e+02 -3.303961573174545379e+02 2.541007602342070015e+00 7.358794574499158898e+02 1.786359092569593486e+03 1.051231087082125441e+03 5.527194250082498002e+02 5.687350659041092058e+02 1.367091182564211920e+02
5.472441136922053602e+02 3.372991365697822062e+02 -2.078610725973989588e+02 3.782727753431722704e+02 -4.399941553890822661e+02 6.364211412452466021e+01 7.529031689878549969e+02 2.000237391516721800e+03 1.253499217835001900e+03 7.503383442390586424e+02 7.722224752015663398e+02 3.028300965495054129e+02
6.493288423635065101e+02 4.775795011561702381e+02 -1.726850477519149081e+02 4.112605803045518655e+02 -5.624002198647749537e+02 1.514750648832706474e+02 7.531397900252632098e+02 2.149968758513706234e+03 1.448575313497032994e+03 9.620514279558581165e+02 9.897832996996791053e+02 4.958866326125294677e+02
7.644241477878834985e+02 6.627376589964850382e+02 -1.012864138296980201e+02 4.336685417115720043e+02 -7.118689261143589420e+02 2.803365272125417391e+02 7.426379357679300028e+02 2.330454251346522142e+03 1.655752026900550163e+03 1.206804763093861538e+03 1.240543768124921371e+03 7.325473194442091653e+02
8.391296250028228769e+02 8.517743111298865415e+02 1.321711828243051201e+01 4.128086154780270931e+02 -8.434628759417961419e+02 4.322240103432318961e+02 7.257251899548792835e+02 2.392353320687593168e+03 1.822660918534056691e+03 1.438428594882086145e+03 1.473072089305703685e+03 9.634019152926978222e+02
8.599869773421860373e+02 1.065095476338816297e+03 2.048692154146064297e+02 3.281689963868288942e+02 -9.604102927760399098e+02 6.353115982102931412e+02 7.141279633697726013e+02 2.308371025484029815e+03 1.960423062781912222e+03 1.679949451208991604e+03 1.708255546597077910e+03 1.201365905046885246e+03
8.622752229888146758e+02 1.231354100190958434e+03 3.695689033157689778e+02 2.462194848339464102e+02 -1.045283388083046930e+03 8.011797698840197199e+02 6.519962465296953269e+02 2.140829745472955437e+03 2.010643777399943474e+03 1.861075429248568298e+03 1.880234379714446732e+03 1.398675673081094828e+03
8.452009426085309087e+02 1.347966123627133584e+03 5.052684593562908049e+02 1.709106375767714496e+02 -1.094681442714806735e+03 9.260745625616182224e+02 5.069786869346153253e+02 1.819813614232776445e+03 1.957181012981727235e+03 1.984117517236539697e+03 1.994317913126089479e+03 1.565299155321017224e+03
8.135364250584277670e+02 1.413369564524039788e+03 6.014355604743000185e+02 1.059422446639621285e+02 -1.111791081130691737e+03 1.006782441312020978e+03 3.466435884308116897e+02 1.440415936090033711e+03 1.816812241144356904e+03 2.019165376006843417e+03 2.016091595631435212e+03 1.659427216766228639e+03
7.731181502348739514e+02 1.415893318327295674e+03 6.414316398665642964e+02 6.619414006827446428e+01 -1.092768707367239585e+03 1.029064383210268488e+03 1.570934556129591613e+02 9.571308429000536080e+02 1.557591592853689917e+03 1.946895464766626219e+03 1.927369802879691406e+03 1.669469098401651536e+03
6.774032107376917793e+02 1.370395143557371057e+03 6.923986860751356289e+02 -6.629840950959913215e+00 -1.021734879493621406e+03 1.030312131588066904e+03 2.683529057675920981e+00 4.578419928899845104e+02 1.241449571687040589e+03 1.781793360059665702e+03 1.743928777737175551e+03 1.598508336077502236e+03
4.964793588590615059e+02 1.254960768322863032e+03 7.574453625554384644e+02 -1.295820520411496659e+02 -8.745278389230509219e+02 1.004772786908319972e+03 -1.064288268766296142e+02 -9.423359473392733321e+01 8.269740105473966878e+02 1.471901482582723474e+03 1.416215794829728793e+03 1.407845315063536646e+03
3.239940786467026328e+02 1.107443540399164931e+03 7.852990155886651564e+02 -2.291070785471788156e+02 -7.159242801406613808e+02 9.461970483662706783e+02 -2.028845331180449989e+02 -5.569582224423164689e+02 4.449377748820335228e+02 1.144650551084404015e+03 1.082986216815537546e+03 1.195929888391748818e+03
1.714758250072488011e+02 9.277168236509668304e+02 7.578551552466851717e+02 -2.925689034125193757e+02 -5.487690695403954351e+02 8.422751277445449887e+02 -2.856367971301639841e+02 -8.932768666552336754e+02 1.150155729519875081e+02 7.913116750130213859e+02 7.404458080302077860e+02 9.613841490394999028e+02
4.922514012264132077e+01 7.370379513662176123e+02 6.908923628292964167e+02 -3.192406013368154163e+02 -3.924995896214439313e+02 7.126892518926334787e+02 -3.570976977725626966e+02 -1.137456992683484941e+03 -1.691605947460639356e+02 4.682795167227629349e+02 4.279320989765664649e+02 7.274738624065166732e+02
-3.470560339012213547e+01 5.486299021628524315e+02 5.853656399949140905e+02 -3.089627235142190216e+02 -2.561591276027186836e+02 5.667032107295608512e+02 -4.116688798488393672e+02 -1.277236544824278553e+03 -3.782401916756031710e+02 2.009487591084350981e+02 1.670525776989871929e+02 5.105419243306212138e+02
-1.025807897095361341e+02 3.733465756434357559e+02 4.788454792581025572e+02 -2.896591716786587085e+02 -1.343589255257359412e+02 4.262086938504648970e+02 -4.337800603768515657e+02 -1.332299266872806356e+03 -5.355318513525395474e+02 -3.630367807460672935e+01 -6.205105514901028840e+01 3.106226291967118982e+02
-1.590814910848151271e+02 2.216523262393292271e+02 3.824756947911683937e+02 -2.698789848370410596e+02 -3.043601448264173470e+01 3.017344920961207322e+02 -4.169081614568434020e+02 -1.296661284129398382e+03 -6.215628304843776277e+02 -2.216735860171178842e+02 -2.359229039336119058e+02 1.423561990526922614e+02
-1.910367322153132079e+02 1.086753194898672064e+02 3.005807083404748141e+02 -2.444399586188333160e+02 4.108800797291002027e+01 2.040727225383242853e+02 -3.834928218304835923e+02 -1.198752797215832061e+03 -6.453312052326865569e+02 -3.523347712863198353e+02 -3.535284658462607013e+02 1.712215291304973164e+01
-1.858108538818057411e+02 3.838335873327551440e+01 2.250955095587377457e+02 -2.043269788481233604e+02 7.444935760572140282e+01 1.312549581030724823e+02 -3.478968222658839409e+02 -1.055537346972270143e+03 -6.111302498740171814e+02 -4.169500757183565156e+02 -4.067864834518151724e+02 -6.208505980083564424e+01
-1.678011208157025465e+02 1.827423380336299585e+00 1.713472001131459592e+02 -1.700511638563571921e+02 8.408037703142723274e+01 8.630320642687975408e+01 -3.112963839585069081e+02 -8.983866745271528771e+02 -5.356939555386543361e+02 -4.201375662837941150e+02 -3.981341962095326608e+02 -9.143751509430444457e+01
-1.395859347199223350e+02 -6.071515348639989540e+00 1.350593276888247374e+02 -1.368353350530990440e+02 7.552129383015359565e+01 6.470680155107363873e+01 -2.797323164793715478e+02 -7.446088637690642145e+02 -4.362109245124191261e+02 -3.706293776691607036e+02 -3.427387735805842794e+02 -7.706747834796250629e+01
-1.037892871503355252e+02 -5.787034413703930902e+00 9.830241279494140372e+01 -1.006337671438806751e+02 5.714639281177886687e+01 4.576826919249818104e+01 -2.620915167567998765e+02 -6.194364827706987171e+02 -3.507136822677373971e+02 -3.076187636932650094e+02 -2.779758583815512338e+02 -5.338879332561841551e+01
-5.912924618076203842e+01 6.357985449383564136e-01 5.994665807232784971e+01 -6.058423059467461513e+01 3.156799410713472298e+01 3.020878473841119671e+01 -2.605870425109108623e+02 -5.285003731550469865e+02 -2.879661316933360240e+02 -2.485919513000683025e+02 -2.219351204144925305e+02 -3.482467623570101267e+01
-2.131253633225549748e+01 -5.052058375515275479e+00 1.857215748533745270e+01 -1.945414191769279455e+01 1.509065217871080122e+01 6.189448731141914628e+00 -2.574004343360135749e+02 -4.593875691235948580e+02 -2.566684189326563796e+02 -2.123609014549564620e+02 -1.897632543044545628e+02 -2.849568754283627925e+01
4.503333240092781686e+00 -1.575347801240816636e+01 -2.040064541857010028e+01 1.243825725449814534e+01 7.197955949005045539e+00 -1.901067598151004034e+01 -2.405054488770398393e+02 -3.965118775763748431e+02 -2.361838654709616776e+02 -1.941272422979627663e+02 -1.758067648466591493e+02 -3.334408703624558257e+01
2.259506143801515776e+01 -2.940473345934841376e+01 -5.201679587891706547e+01 3.800618373022680174e+01 3.839731254860173415e+00 -4.073978927904216363e+01 -2.160588795897591865e+02 -3.333348723713488084e+02 -2.249716050936514762e+02 -1.954392575450964102e+02 -1.793295510313578802e+02 -4.683039493535738274e+01
3.739606453311139944e+01 -3.465547822122987753e+01 -7.120268605098085857e+01 5.485325187586788331e+01 -1.219179619453355512e-01 -5.276030346734302867e+01 -1.831464122498388178e+02 -2.661586134248352096e+02 -2.081477141303578549e+02 -1.975265416494463011e+02 -1.816673995223347049e+02 -6.283202561892993288e+01
4.403590078203466618e+01 -3.124579488016177464e+01 -7.568583299757284522e+01 5.958790186587658866e+01 -3.829669038816102322e+00 -5.268963109335358297e+01 -1.459687254806368912e+02 -1.937596072609129294e+02 -1.775917974305884570e+02 -1.942766873002077830e+02 -1.768532286500090152e+02 -7.163417130469530036e+01
4.601372046627991352e+01 -2.037803533120861843e+01 -6.617421213692837512e+01 5.635175701265890069e+01 -1.204208369746833363e+01 -4.351812999571865959e+01 -1.097650503870471397e+02 -1.248151612203254643e+02 -1.317347220316525238e+02 -1.777653418169985002e+02 -1.565809702536848818e+02 -6.683383751249473903e+01
5.036402062981175476e+01 -2.024253363106454096e+00 -5.207456707825086539e+01 5.085366736343976157e+01 -2.153052905853515497e+01 -2.753029922339164770e+01 -8.248091493975415744e+01 -6.069714466822145482e+01 -8.085821135018434802e+01 -1.423019671576367955e+02 -1.195766273628117489e+02 -5.002799772423686875e+01
6.070598618690814163e+01 2.067270175360735607e+01 -3.861041414774495451e+01 5.083411051863967600e+01 -3.899769435223556258e+01 -9.782464613774944695e+00 -6.492660219293620116e+01 -9.445072078629566548e+00 -2.972834576849387034e+01 -9.417139248323110223e+01 -7.180533799962050523e+01 -2.484759479954551153e+01
7.075686460933904698e+01 3.582657448841646186e+01 -3.436941971719300426e+01 5.326625464016265710e+01 -5.171940138689454614e+01 -1.255455049012312030e-01 -6.036532164489588581e+01 2.272745340985116158e+01 7.433543520296900908e+00 -4.807770082119805011e+01 -2.937272555927735951e+01 -2.686312651024687970e+00
7.805957755598630854e+01 4.049205436130383617e+01 -3.559049452743008857e+01 5.679423229663946415e+01 -5.787312725037349992e+01 2.437840962772124254e+00 -6.091027694544261806e+01 4.048003169982640514e+01 2.781749141340624121e+01 -1.614366966704383088e+01 1.624111916849222848e+00 1.586314445656902805e+01
8.102085903715637016e+01 3.412097432273617414e+01 -4.601117458714404052e+01 6.453937479245941233e+01 -5.617060321915904808e+01 -6.482929188488430583e+00 -6.669134875580118660e+01 4.172760297880333979e+01 2.540569400013161427e+01 -1.921215515002031360e+00 1.223537550933616380e+01 2.096932697239574139e+01
7.704086841927244222e+01 2.224230688306050396e+01 -5.525033696682236695e+01 6.709039309563225117e+01 -4.899285678693294699e+01 -1.773683358720682079e+01 -6.880368555399809338e+01 4.192364615647309734e+01 1.484513027692250731e+01 5.984223236561936332e-01 1.041243000354824311e+01 2.150974834343002584e+01
7.777884341048077488e+01 8.674736411893965382e+00 -6.814250267885742574e+01 7.378717935637382652e+01 -4.138020153341639684e+01 -3.029186583591178916e+01 -7.197262457402953828e+01 3.739740988342489203e+01 -5.585048395649853781e+00 -1.465460344701356732e+01 -6.197685136888721580e+00 9.259698385522199260e+00
8.142406352397247815e+01 1.305011649630457349e+01 -6.855436925085808753e+01 7.510840363280604493e+01 -4.576872284836677807e+01 -2.852335870498794534e+01 -6.486191492133427516e+01 5.176432263358427832e+01 -3.412806895906371540e+00 -2.604431128141597185e+01 -1.464658509762778493e+01 -2.848147774579996155e-02
8.097197299120939817e+01 1.912886415496119952e+01 -6.264830447291372195e+01 7.154216293259904091e+01 -4.945508367128311278e+01 -2.289748917650366877e+01 -5.595915662494004295e+01 7.049896404609903300e+01 8.410687275461917523e+00 -2.678935739338974997e+01 -1.332957313262573074e+01 -2.179511516177929042e+00
8.346415719470546435e+01 2.046233290228383694e+01 -6.254747327497197062e+01 7.243299189781087932e+01 -5.146346957972154712e+01 -2.147964091722009883e+01 -5.308225318644880275e+01 8.354322820314041564e+01 1.506510163704312788e+01 -2.366611558862377507e+01 -1.005484879434911072e+01 -3.130404186078419748e+00
8.570716737280334030e+01 2.654993479709526127e+01 -5.956476872604464035e+01 7.193539901485665666e+01 -5.585043759422650567e+01 -1.629386456706003727e+01 -4.861348521055857219e+01 1.009472130789744142e+02 2.952702860503188731e+01 -1.512870128639186973e+01 8.073429267432352674e-01 1.252830387534831891e+00
9.137949046327531732e+01 2.963732519107644237e+01 -6.126660670116440599e+01 7.535667997429372633e+01 -6.068640890429954027e+01 -1.621029459449263399e+01 -4.784588265981033572e+01 1.120790838140400183e+02 3.991680365258203977e+01 -2.430976595973671550e+00 1.078464766040717748e+01 7.757050330449475339e+00
9.548922758234027697e+01 3.264797900708718714e+01 -6.386480749793422973e+01 7.974546129507741909e+01 -6.368299978260053962e+01 -1.611990303866182828e+01 -4.896834284166394724e+01 1.206850149150696154e+02 4.846359306088956487e+01 7.455038546794741094e+00 2.086598605785052740e+01 1.308154432138582557e+01
1.018322178529322599e+02 3.282509087497723499e+01 -6.916189602792503877e+01 8.508075514507078196e+01 -6.684218612412733762e+01 -1.844362979275681980e+01 -5.124327838921944789e+01 1.256124267269227630e+02 5.088461789000489688e+01 1.531687670010680868e+01 2.687243337606734883e+01 1.668500088199673215e+01
1.071899971325056242e+02 3.410268060951373315e+01 -7.380329509752267825e+01 9.026752088422651354e+01 -7.009780895894580510e+01 -1.986558992373872101e+01 -5.362367668562174572e+01 1.278916691766640810e+02 5.015770207478074383e+01 1.742392144427210354e+01 2.852328373154484709e+01 1.703486167799063722e+01
1.139378757571899001e+02 3.571928002933020707e+01 -7.862127366784943661e+01 9.639305682446175183e+01 -7.456982858772225597e+01 -2.259755836733986811e+01 -5.643139714754262570e+01 1.287425871567735953e+02 4.757596390442022738e+01 1.603364643797225142e+01 2.631416240975951837e+01 1.620692626003774706e+01
1.186655257234094734e+02 3.690876585809948551e+01 -8.222253977279125081e+01 1.000983871136272683e+02 -7.816687892939523863e+01 -2.287810268957821336e+01 -5.770358678736771196e+01 1.322282074387894397e+02 4.633174429939484895e+01 1.313437052920016335e+01 2.328303698381613529e+01 1.343985907593934925e+01
1.243275619751742198e+02 3.942653382903619530e+01 -8.562654995322891693e+01 1.046956930199989415e+02 -8.216010218880524008e+01 -2.364542580539146144e+01 -5.758144272848278433e+01 1.375507501785360205e+02 4.657304398477008789e+01 1.112881606754120867e+01 2.034231322415754661e+01 1.290518205790795392e+01
1.276800090404408223e+02 4.051270849899309923e+01 -8.679434873211759793e+01 1.071552968737207863e+02 -8.396306861513754427e+01 -2.405595453482154866e+01 -5.680486524901402845e+01 1.463443764871736903e+02 5.112389955232571737e+01 1.164388794705175201e+01 2.129338193771982191e+01 1.414893801922494454e+01
1.311913932441701434e+02 4.196932159062101420e+01 -8.952772993052772676e+01 1.095604680813472811e+02 -8.669187465370586665e+01 -2.402556650931425253e+01 -5.667309533385402887e+01 1.551046763195656411e+02 5.899309381909843353e+01 1.620242727177186026e+01 2.567100113133792760e+01 1.905828748579655141e+01
1.365281825086488539e+02 4.546516632090254717e+01 -9.073317429066763395e+01 1.136674659691999949e+02 -9.086854130682161212e+01 -2.361482360335131148e+01 -5.560529744570028043e+01 1.644600340614665868e+02 6.841781714495401445e+01 2.301085757653969921e+01 3.238543887500510010e+01 2.404162789009636469e+01
1.452836687551811963e+02 5.166982094444644957e+01 -9.437518265330784573e+01 1.193881038931355363e+02 -9.882049946142629437e+01 -2.181460677123155278e+01 -5.670411463862149049e+01 1.722365015396528065e+02 7.675497785199748080e+01 3.054744633479108273e+01 4.073377846568701699e+01 3.138528277281083945e+01
1.544950782556119862e+02 5.725172381635499619e+01 -9.820988225090233925e+01 1.263858889561141865e+02 -1.063973558027980602e+02 -2.030190442850276966e+01 -5.748855368523396692e+01 1.785914906241609117e+02 8.380275547120422175e+01 3.838363810352826988e+01 4.874653600597192593e+01 3.725003114698296969e+01
1.650882794807266691e+02 6.376167873003848996e+01 -1.024122369969123554e+02 1.344434198492897963e+02 -1.149197392756129688e+02 -1.944834873189744684e+01 -5.857314614666749719e+01 1.839841610334826498e+02 8.851012984690289898e+01 4.397974293457703965e+01 5.528579845617991850e+01 4.387244671890561420e+01
1.741359069052851112e+02 6.873437043982492867e+01 -1.062880977718575224e+02 1.403358236651770881e+02 -1.219382421446015172e+02 -1.883027807013822041e+01 -6.010117470306870757e+01 1.887830709869384975e+02 9.137201209077105091e+01 4.856945969880536751e+01 5.934650397690487722e+01 4.816324953710130785e+01
1.825506641194650115e+02 7.414717924312404307e+01 -1.095447570654985583e+02 1.462468308418308709e+02 -1.288413040701782677e+02 -1.879903795825008217e+01 -6.131408043860579227e+01 1.943354658719493955e+02 9.295187677738071841e+01 5.120773095084196314e+01 6.238833282259492563e+01 5.300313760855301126e+01
1.881093309123115773e+02 7.812302747434050332e+01 -1.108027215134549976e+02 1.501407493552676442e+02 -1.336338139812388022e+02 -1.664388295598206469e+01 -6.118388755787452737e+01 2.008849564239098129e+02 9.573072923736465611e+01 5.358580031421874423e+01 6.443604071655573762e+01 5.722322955965514524e+01
1.952113225139292183e+02 8.294667980659859552e+01 -1.135422130350416836e+02 1.544837745624356842e+02 -1.395428231216340578e+02 -1.552669749768604923e+01 -6.286173061095325210e+01 2.084858518171427875e+02 9.862642094350488264e+01 5.672765802028091287e+01 6.783149951564224978e+01 6.184273878452437145e+01
2.017215107183715759e+02 8.764076876830138474e+01 -1.142907859264604156e+02 1.580746489537650916e+02 -1.452592117015585984e+02 -1.387623682562797356e+01 -6.365018289129884721e+01 2.170122519763784794e+02 1.025230687240428438e+02 6.016671289971399261e+01 7.142800363767469207e+01 6.680262134176665256e+01
2.094080689058827716e+02 9.356609399292622697e+01 -1.163687979262829799e+02 1.625447993017131409e+02 -1.516738761152219013e+02 -1.194256298707473718e+01 -6.699777529876439530e+01 2.263145554663702228e+02 1.085790919966097618e+02 6.424261045272777437e+01 7.719452489918128890e+01 7.195924526905196217e+01
2.147503664359399806e+02 9.878284434959402915e+01 -1.170879775350819045e+02 1.656510245064252729e+02 -1.567498556432288979e+02 -9.342917590287438401e+00 -6.933851311092712422e+01 2.345170157872710490e+02 1.137997771850558024e+02 6.916856810524693344e+01 8.151446018700784180e+01 7.670308988545093598e+01
2.201297557473384927e+02 1.041108687136586468e+02 -1.169842455964660388e+02 1.684572040689442645e+02 -1.620566750618913829e+02 -6.600589751692294449e+00 -7.352912089048253108e+01 2.430173399676572785e+02 1.193456421257523203e+02 7.518888305346376910e+01 8.752636397972591453e+01 8.204136050980042683e+01
2.237062973611877510e+02 1.074049942672674973e+02 -1.172900441817757269e+02 1.697258021453100980e+02 -1.658938982886233475e+02 -5.800263041531124486e+00 -7.655404047403173706e+01 2.521548148218153358e+02 1.253589948808773329e+02 7.953255180616281450e+01 9.329229122089533632e+01 8.652078039918029617e+01
2.271380978866125417e+02 1.086415197109289323e+02 -1.195440134209869996e+02 1.733429215951660467e+02 -1.681588520688550261e+02 -6.525634741510195624e+00 -7.999861911250641811e+01 2.610424910575547415e+02 1.318609638141339815e+02 8.544457077686713831e+01 9.944614945842862141e+01 9.294982292505545729e+01
2.316581705305753758e+02 1.093919566886316659e+02 -1.231803404383779963e+02 1.770196704736164293e+02 -1.704832277470453903e+02 -7.605303459135280164e+00 -8.159079304907500330e+01 2.704550404916976731e+02 1.389897416183685834e+02 9.169885775597821009e+01 1.057587645651549622e+02 9.982637897874948862e+01
2.373412720454602152e+02 1.114600966238604656e+02 -1.270210154583998872e+02 1.820093136220474719e+02 -1.741492719865563288e+02 -8.224972582805449406e+00 -8.266881852434948996e+01 2.811957739152318823e+02 1.459590258571456047e+02 9.918065329118667250e+01 1.130237796622515702e+02 1.075042358493877117e+02
2.434312434812304389e+02 1.155136118473778311e+02 -1.286701157736437153e+02 1.857896312935192213e+02 -1.791026547566411864e+02 -7.093115226914228799e+00 -8.305412115376689997e+01 2.921399663307369110e+02 1.528459744299551346e+02 1.056692894703396917e+02 1.203297211954828043e+02 1.154247176372829813e+02
2.489147607141512424e+02 1.215210246651670616e+02 -1.291611179821651660e+02 1.887098492928176938e+02 -1.855532280443235038e+02 -4.346586617388418006e+00 -8.295827918918332955e+01 3.032896107520642204e+02 1.604621706000797587e+02 1.135749679551483240e+02 1.281709939177859496e+02 1.236531031923139068e+02
2.540443827257141720e+02 1.267241070653339960e+02 -1.287820327958682753e+02 1.915363852319096623e+02 -1.912342027451455806e+02 -1.290456252038168161e+00 -8.339674741722528495e+01 3.136448790111695075e+02 1.680752693246725471e+02 1.213514834188500799e+02 1.351543647541737982e+02 1.308810781445249916e+02
2.612807978960016726e+02 1.323645190028943830e+02 -1.299058185610018654e+02 1.955357176674610571e+02 -1.973683946598711998e+02 1.366255947308658625e+00 -8.468191197187793762e+01 3.236304724074503270e+02 1.748456954231970428e+02 1.296479665026260477e+02 1.433988134814989053e+02 1.383679004849325338e+02
2.703405085938741763e+02 1.378588156374112828e+02 -1.329134126857642570e+02 2.016220627695355176e+02 -2.041087075945308129e+02 2.151163529433696819e+00 -8.572458130192340775e+01 3.331724325401664828e+02 1.816223498682993238e+02 1.369374042766330888e+02 1.491063413230877188e+02 1.465488431885458454e+02
2.809889761449482535e+02 1.431129743569135542e+02 -1.382417976427455528e+02 2.098579968776105034e+02 -2.126620993552855623e+02 1.914938350660662092e+00 -8.919645029776424394e+01 3.415710583237492983e+02 1.867247294738732535e+02 1.435720930824355150e+02 1.556120811916588025e+02 1.540171461367143309e+02
2.933036417886939375e+02 1.498636959647856486e+02 -1.443486315767139558e+02 2.194014829483261622e+02 -2.209092885159423361e+02 2.064335753248933258e+00 -9.349114679189894161e+01 3.489970063552949568e+02 1.919006082097552621e+02 1.487531383624032344e+02 1.607498208872058854e+02 1.607899241059689928e+02
3.084810739391971310e+02 1.568706712789086737e+02 -1.506288096207959484e+02 2.300597968540666898e+02 -2.328759799576866101e+02 1.943851413289513497e+00 -9.945413892686561042e+01 3.554828435852704160e+02 1.962679494456019142e+02 1.538226397642213783e+02 1.654144924157826324e+02 1.679721215639553407e+02
3.231307259445308091e+02 1.642012479522146293e+02 -1.585089497297970809e+02 2.410632657672122150e+02 -2.440063519565813408e+02 2.053456738589731323e+00 -1.050363123625878927e+02 3.608101814904293292e+02 2.002069858932010504e+02 1.587082169572973385e+02 1.694115260312378268e+02 1.747810761061764708e+02
3.384402406967210482e+02 1.727227679440005090e+02 -1.659015914292587297e+02 2.521500285849971021e+02 -2.551653380013224819e+02 1.945572041291976140e+00 -1.124059746464714920e+02 3.657496168441792861e+02 2.041820127102038214e+02 1.638098841834800794e+02 1.750741762128650123e+02 1.819283655704028888e+02
3.528364981281641235e+02 1.792904892362765850e+02 -1.729401925240265996e+02 2.625943847350765736e+02 -2.660339250499399100e+02 2.059270809436519301e+00 -1.199171253744500092e+02 3.707505573033773203e+02 2.082849692196176647e+02 1.687182245214868885e+02 1.794112544066202020e+02 1.890985476547836583e+02
3.658350941038172550e+02 1.858455031520180967e+02 -1.792940517386587373e+02 2.724721241494710284e+02 -2.763394382160543046e+02 1.929592425943208234e+00 -1.271989609259649967e+02 3.757342627818558753e+02 2.117163117608968435e+02 1.737308631986210514e+02 1.854495587183426721e+02 1.980500986463763411e+02
3.774730971052233599e+02 1.920273779120361155e+02 -1.857981196678681499e+02 2.821795274546722112e+02 -2.846075165837590362e+02 2.096456288639303889e+00 -1.355941599657828078e+02 3.810539023175497277e+02 2.149317853510628709e+02 1.791320819272122833e+02 1.910765320475217948e+02 2.067452083544925472e+02
3.892191208284998538e+02 1.968132403208747121e+02 -1.920996297798932915e+02 2.903325753767874744e+02 -2.942392850190502713e+02 1.821457197188879773e+00 -1.424786644234830533e+02 3.878743048390074932e+02 2.197744845359919168e+02 1.853692124801241619e+02 1.978138426791157656e+02 2.165001693535735114e+02
4.002570449032527904e+02 2.044247297924310658e+02 -1.961580533062375480e+02 2.984968283400800146e+02 -3.025575455436442667e+02 2.871760287920081645e+00 -1.481173251225569345e+02 3.946698146978316117e+02 2.246199661134381529e+02 1.915081139250404192e+02 2.051701301204641936e+02 2.263376411896061313e+02
4.124160368550828366e+02 2.121492647908422384e+02 -1.998459623837096046e+02 3.058193798432260451e+02 -3.126166828881109723e+02 5.556183690956889798e+00 -1.544717654264362636e+02 4.024232600077280608e+02 2.302191130757381359e+02 1.994853710196823044e+02 2.134986981768306009e+02 2.369389481146300795e+02
4.225829421627135503e+02 2.213045060338322685e+02 -2.022076215640794885e+02 3.129409235967318637e+02 -3.222174507417436189e+02 9.015070702374870848e+00 -1.596475161315563867e+02 4.095202463196924327e+02 2.359727512951969288e+02 2.068103529888994103e+02 2.212818882949576391e+02 2.479947575060368194e+02
4.344325471962478105e+02 2.314320773193875596e+02 -2.032472919936884068e+02 3.189063346385622140e+02 -3.326617763510589612e+02 1.364068318948784331e+01 -1.651930283437168612e+02 4.150676779076009666e+02 2.400878900844788291e+02 2.141545363711715879e+02 2.289757117648900930e+02 2.589127318362234291e+02
4.437413127405599766e+02 2.415127556609950261e+02 -2.028578291691699462e+02 3.236245307996453562e+02 -3.421421896090812425e+02 1.875956832645603711e+01 -1.712078386045899663e+02 4.214731134133834303e+02 2.446716440047191270e+02 2.225426785480678404e+02 2.360544885608191237e+02 2.703795921845749604e+02
4.533845354481069876e+02 2.508138617621972912e+02 -2.030530747404162355e+02 3.286850642629817116e+02 -3.527122271282219685e+02 2.362949732103619738e+01 -1.776502021300942715e+02 4.263528176937941794e+02 2.493229643732186673e+02 2.296705869648967564e+02 2.441784202077308805e+02 2.822415660561107416e+02
4.636468618530897743e+02 2.607016340964423762e+02 -2.033413198363687115e+02 3.341055175960289034e+02 -3.619469214305395326e+02 2.881549026848956885e+01 -1.848549179602555057e+02 4.296999969831198882e+02 2.530732583090605488e+02 2.373854709032852384e+02 2.504251199876464682e+02 2.923287934512611059e+02
4.755230413973285977e+02 2.716704316763557472e+02 -2.046298172186311035e+02 3.402360240427516942e+02 -3.736162222802281008e+02 3.319009538655595293e+01 -1.916799208215588806e+02 4.322680540070615507e+02 2.569063630823058588e+02 2.444118259973955389e+02 2.581119185969562295e+02 3.021909405388145160e+02
4.873349825481801076e+02 2.811680464910543265e+02 -2.058290783986828671e+02 3.466216951175020995e+02 -3.844693759888376690e+02 3.719766555725021817e+01 -1.988685357765583319e+02 4.332359136174533774e+02 2.590001917854726230e+02 2.502473345887237031e+02 2.641057931331129680e+02 3.097965657583720258e+02
4.992885587293222898e+02 2.912284995658556568e+02 -2.082435581109205316e+02 3.534991518285518737e+02 -3.943899827067517094e+02 4.070556526598322478e+01 -2.053038662865783124e+02 4.327635087342525821e+02 2.611857676680837130e+02 2.553943084395381220e+02 2.700049812607019248e+02 3.167733698624664953e+02
5.085261008000953780e+02 2.988153647374576281e+02 -2.099567118442061542e+02 3.586631758396354712e+02 -4.037075372204462269e+02 4.359173613135823899e+01 -2.108508505830618560e+02 4.336277514251881939e+02 2.628901294629679342e+02 2.590739701056244826e+02 2.743650039311380056e+02 3.236835404957420792e+02
5.154773600032920058e+02 3.050641830062987765e+02 -2.118437010854503058e+02 3.633842917461477668e+02 -4.098355088898913436e+02 4.624485693846390433e+01 -2.151596158922307325e+02 4.340263821447607597e+02 2.656163495840087876e+02 2.626869517432252792e+02 2.799661042577919829e+02 3.307924927176120491e+02
5.203274883311538588e+02 3.089508206767783918e+02 -2.119477387285536452e+02 3.663074546749597857e+02 -4.146817263023245914e+02 4.792001621581398751e+01 -2.188829466502279217e+02 4.340948792488117078e+02 2.684741268330618027e+02 2.663179351971681399e+02 2.843380743364236309e+02 3.376453887672512337e+02
5.235768097974471402e+02 3.133744841006654269e+02 -2.120084065188504212e+02 3.674137722992754789e+02 -4.188476038782563933e+02 5.022420621139637831e+01 -2.208428395412244925e+02 4.334917418829565463e+02 2.721115870811588593e+02 2.715261727586581060e+02 2.900211873845423156e+02 3.448099295598876779e+02
5.270007872635234207e+02 3.164803257134198589e+02 -2.123784399908826401e+02 3.694352488976008431e+02 -4.218128471982685141e+02 5.158129370838673822e+01 -2.241291341824597794e+02 4.326214103897004293e+02 2.757591678531667299e+02 2.747969112787420158e+02 2.939125074399895539e+02 3.513214266045304726e+02
5.310983414205194322e+02 3.198248895502693472e+02 -2.135004955213202038e+02 3.722131888218159474e+02 -4.259947062403926452e+02 5.222481337622042474e+01 -2.272255934144790501e+02 4.305366515479140617e+02 2.781689957202712549e+02 2.794097621067952559e+02 2.984001492259666293e+02 3.566557740778700918e+02
5.355716091729580057e+02 3.216333339604281605e+02 -2.156247396322983718e+02 3.746521154627266696e+02 -4.282515462864938627e+02 5.142389104071252603e+01 -2.294554644843668996e+02 4.278221892737032022e+02 2.796323170817326513e+02 2.825637743181497399e+02 3.014762226875492388e+02 3.620472053614425363e+02
