8.699999999999994316e+01 4.000000000000000711e+01 -4.499999999999996447e+01 -6.199999999999992895e+01 6.599999999999997158e+01 -1.999999999999973799e+00 5.700000000000009948e+01 2.089999999999998295e+02 1.329999999999999716e+02 1.109999999999999574e+02 7.500000000000002842e+01 8.199999999999998579e+01
9.804879735626833792e+01 5.699561703568775073e+01 -4.005278681498502635e+01 -7.502126567283053760e+01 7.105071660905701947e+01 8.972539491317046867e+00 5.203418946825844671e+01 1.981110423674219874e+02 1.290594524510061376e+02 1.100445181010619109e+02 7.203436520892933004e+01 7.603216753763560121e+01
1.088953790271810789e+02 6.596860178315530732e+01 -3.992830264910284654e+01 -8.593291526810745040e+01 7.591258671377322287e+01 1.302017345919454705e+01 5.494444064805288264e+01 1.988511636674863610e+02 1.309153447851240912e+02 1.099442287951743253e+02 7.295089813287609104e+01 7.496337555743855319e+01
1.200418728323819266e+02 7.398368775231695338e+01 -4.604888750397672936e+01 -9.401591740816556353e+01 8.404802175342068438e+01 1.396729294524389076e+01 6.201848636820110983e+01 2.100953045737504112e+02 1.370547189854994485e+02 1.120414924413070423e+02 7.603810341114990479e+01 7.702407365220010149e+01
1.338435423705661833e+02 8.392772945577138444e+01 -4.792975086770849202e+01 -1.068779706774723479e+02 9.188348444028174811e+01 1.800107057214128403e+01 6.793291493509677537e+01 2.227964749966849070e+02 1.448770250253323866e+02 1.189080079192540325e+02 7.892760287579230294e+01 8.193881321901633896e+01
1.460136231958033477e+02 9.791716492964837926e+01 -4.807213311285700286e+01 -1.199726259693164820e+02 9.804667819839818321e+01 2.392743281899417696e+01 7.201848888833475826e+01 2.321021987163863400e+02 1.520467361694526574e+02 1.230363103579794881e+02 8.501581821758867363e+01 8.502065994122415304e+01
1.676906641035928658e+02 1.188001188720326127e+02 -4.792349191252930751e+01 -1.407415644942422830e+02 1.088040758919672157e+02 3.492842698262152368e+01 7.692663767346583370e+01 2.427575272699423863e+02 1.598515086761534008e+02 1.318530983025257228e+02 9.089618371332318247e+01 9.188942148113004293e+01
1.929809307576754520e+02 1.418949360109908184e+02 -4.906401846916726583e+01 -1.659283713036674612e+02 1.210409442864175134e+02 4.690887021864711670e+01 7.805031584044716908e+01 2.501515251145776801e+02 1.650770236618931790e+02 1.400284760264974011e+02 9.801173799990695557e+01 9.901498071714632943e+01
1.939753531255253733e+02 1.420937959084377553e+02 -5.089285847507715488e+01 -1.670409574442920473e+02 1.219175089123645819e+02 4.709671612937574281e+01 7.795841313679103735e+01 2.468908443661573244e+02 1.658986459093143253e+02 1.438968375553926080e+02 1.009175636540616807e+02 1.009359177183662553e+02
1.842254117291792852e+02 1.291392480622899654e+02 -5.407094551174030528e+01 -1.541941651331861465e+02 1.201457784754461500e+02 3.707218684536958619e+01 7.509469201374783154e+01 2.402513991063127889e+02 1.651306135780806983e+02 1.450942311833310612e+02 1.040464194844087586e+02 1.020640613571221706e+02
1.700838142931951609e+02 1.190962021033654281e+02 -5.000426627347172115e+01 -1.430625928266524340e+02 1.110399212572138623e+02 3.301950017638155543e+01 7.197398895936137819e+01 2.319208388092569635e+02 1.609483892125334421e+02 1.400097608973688068e+02 1.009981328249744195e+02 9.703054486195625827e+01
1.581921819764810380e+02 1.120640964482070245e+02 -4.511047644374505694e+01 -1.341507225050266356e+02 1.021712612692901274e+02 3.397929837749455118e+01 7.006927274748066736e+01 2.281576586730402312e+02 1.581213261476933951e+02 1.350910879909933158e+02 9.905869935669181814e+01 9.306322090910700240e+01
1.549142153340732193e+02 1.100148208421615266e+02 -4.391781502815015159e+01 -1.299637183493036616e+02 9.988327682520341000e+01 3.206032429901899405e+01 7.090259358421855040e+01 2.336948251042023230e+02 1.598092376803975299e+02 1.368767808399525165e+02 9.796155537232256449e+01 9.294359710616564030e+01
1.550736051365072115e+02 1.080175828574652712e+02 -4.603706986747660324e+01 -1.300364544878006541e+02 1.030519402868282697e+02 3.096562119280999070e+01 7.498097477917744413e+01 2.449610191428183725e+02 1.689416368817761054e+02 1.409800714300970697e+02 9.996788513607917537e+01 9.498837939331454550e+01
1.569003291325491318e+02 1.109048163378639202e+02 -4.501231075905389645e+01 -1.319133674375791827e+02 1.029563177899390922e+02 3.297079725077299628e+01 7.986823608616469983e+01 2.615177858624675196e+02 1.796944409219296119e+02 1.497581882874273731e+02 1.068257174689278912e+02 9.986156250702659065e+01
1.541620479715703880e+02 1.149604494205372021e+02 -3.914875579482322365e+01 -1.330395615213488441e+02 9.819071093275654505e+01 3.689681030854741550e+01 8.302339825366159687e+01 2.769670538655236669e+02 1.919166686338879231e+02 1.579515499793978677e+02 1.139255936000460139e+02 1.049675375273202178e+02
1.529065338530438396e+02 1.169715457657888038e+02 -3.697078133078772311e+01 -1.339454263702270111e+02 9.492534094368419062e+01 4.096088175640372953e+01 8.489737952926699904e+01 2.876146872507998751e+02 1.988163419517593411e+02 1.648147244569346697e+02 1.198768187792781390e+02 1.079311329921669653e+02
1.501882512247104273e+02 1.170082607129528327e+02 -3.219310980183119852e+01 -1.321072376153268806e+02 9.316621196614114808e+01 4.295931814676812621e+01 8.703370158447533811e+01 2.960953022712374150e+02 2.020536038868242485e+02 1.670810750478201783e+02 1.210530367794836906e+02 1.080448709702385770e+02
1.479081667709144199e+02 1.179697135876458418e+02 -2.894336291271793371e+01 -1.309498496594277981e+02 8.994243160141517990e+01 4.398387582676880925e+01 8.696278811575652412e+01 2.968338399134827341e+02 2.038712676235671211e+02 1.678893957248908464e+02 1.219257386304182802e+02 1.089353450034370070e+02
1.461730798610561521e+02 1.180060047537332650e+02 -2.715416416303899183e+01 -1.300772303733987201e+02 8.816669040699328264e+01 4.594792030896798707e+01 8.606708678499173004e+01 2.971459077131329991e+02 2.041109657440558749e+02 1.671418428061238899e+02 1.210900207088816387e+02 1.080909096850906366e+02
1.448619817662180651e+02 1.199158570101832169e+02 -2.397187959411612468e+01 -1.308841662780980926e+02 8.494231746169676001e+01 4.697489312387742189e+01 8.688852254601999903e+01 3.006770679417913925e+02 2.057830855909159311e+02 1.668382854310218022e+02 1.228206093190769934e+02 1.079041895008662095e+02
1.479906418517987845e+02 1.229266103329806583e+02 -2.306389193088743284e+01 -1.339609112055344156e+02 8.600766257675493875e+01 4.992710890772630705e+01 8.996633085399095364e+01 3.079647874567983195e+02 2.119467955894863280e+02 1.709970934967133758e+02 1.270069739467168972e+02 1.100135211515526379e+02
1.537253775416560018e+02 1.259638566847668812e+02 -2.673226887148688746e+01 -1.378716536879317687e+02 9.170185988658191434e+01 4.815126055810899430e+01 9.383942163243497703e+01 3.194289391885951090e+02 2.177389130057941884e+02 1.747640032427562176e+02 1.298055314000525016e+02 1.118603404972643602e+02
1.599263388671322161e+02 1.240838269186405824e+02 -3.486632148101742246e+01 -1.390180606599716384e+02 9.893183556237252674e+01 4.404933120697978666e+01 9.699629891255118253e+01 3.347685221424091537e+02 2.248524835820558110e+02 1.828258314439675587e+02 1.349646776163761785e+02 1.168885690998553741e+02
1.667331685793610347e+02 1.239528078248512486e+02 -4.173931799287451128e+01 -1.428086469586833402e+02 1.047259498885330942e+02 4.113302956718908376e+01 9.888781395347437808e+01 3.512703204151260934e+02 2.374424217184197801e+02 1.916857076158987923e+02 1.387533516329552867e+02 1.218498696879729266e+02
1.700142247807232536e+02 1.230848799350386145e+02 -4.696419751240037499e+01 -1.450385355722099803e+02 1.099797769920091355e+02 3.802119913556534669e+01 1.009887407570005138e+02 3.697144734760084361e+02 2.517852488605763881e+02 1.988816439867810004e+02 1.468472228672391680e+02 1.240016190959839690e+02
1.766198979025317612e+02 1.229079317293938800e+02 -5.077883475802693169e+01 -1.477909660505977740e+02 1.147063405772465785e+02 3.706999527585974619e+01 1.029137028322930263e+02 3.824825272953434023e+02 2.587627455810479660e+02 2.057142546431909409e+02 1.517975450193976883e+02 1.268257673951991222e+02
1.811446132568216854e+02 1.250099310618292634e+02 -5.499277773300268990e+01 -1.510484417495538594e+02 1.190979914650263822e+02 3.503741341941842080e+01 1.030383926962281862e+02 3.909876555208578566e+02 2.620062771293631840e+02 2.109376905377146443e+02 1.578441001623197053e+02 1.299913101127273478e+02
1.770996149523165855e+02 1.221896029066674743e+02 -5.593019150238460213e+01 -1.481583971335701051e+02 1.160260188974557991e+02 3.311741020912334221e+01 1.058042336880570105e+02 3.975367720114315375e+02 2.666843531733343298e+02 2.166871124765161198e+02 1.637513808193093325e+02 1.318633923695319936e+02
1.693839193120736013e+02 1.151956457588697162e+02 -5.422525422757268387e+01 -1.402825114473507710e+02 1.132183921667767947e+02 3.002893811895699727e+01 1.080558549973345777e+02 4.050175457737329339e+02 2.719780992667180612e+02 2.219751169669656861e+02 1.698467700620459766e+02 1.340202008159027969e+02
1.640215559349903174e+02 1.148538676674344430e+02 -4.724219542877987976e+01 -1.379482332641180449e+02 1.071906023601901978e+02 3.277895443157494526e+01 1.079487961716740045e+02 4.095639309968079829e+02 2.757386251911412387e+02 2.247995376805468482e+02 1.748124306449759331e+02 1.339671653821819461e+02
1.592641657858484052e+02 1.188407494176261423e+02 -3.929383715611960781e+01 -1.361037857730130156e+02 1.002584676039087270e+02 3.976301220143371040e+01 1.061632724679098487e+02 4.188268286844828481e+02 2.790258561611746586e+02 2.279617996942632203e+02 1.779205799267496388e+02 1.330922164671608812e+02
1.624486891366244379e+02 1.265857055287228690e+02 -3.596723027762692482e+01 -1.424121305360582710e+02 9.977148299041803625e+01 4.482061392013324053e+01 1.067434214023531069e+02 4.283846939733687691e+02 2.835737726191977117e+02 2.335839223620866676e+02 1.836627439194329270e+02 1.338079636966570547e+02
1.738315615371666070e+02 1.348438203907535922e+02 -3.601417670921855319e+01 -1.538548035960195079e+02 1.048688269197441514e+02 4.984839539036757117e+01 1.119487474319288651e+02 4.416376071750214578e+02 2.927697498550860473e+02 2.427538402920933720e+02 1.898558671127011621e+02 1.388595528947491573e+02
1.768559198487650974e+02 1.360514078039711876e+02 -3.969696098381937333e+01 -1.549729429560088931e+02 1.097711698331765717e+02 4.921744445608717200e+01 1.138215051407794363e+02 4.543240255683436430e+02 3.023925892533287083e+02 2.505873100029842817e+02 1.965920195684468013e+02 1.427903362912288401e+02
1.771229602382269661e+02 1.322265487860384496e+02 -4.491272715818996630e+01 -1.531851584875215906e+02 1.110878380771926714e+02 4.319876153310198674e+01 1.169899242905222678e+02 4.666574183518043242e+02 3.146861853616700841e+02 2.587513764448395364e+02 2.029437167638694461e+02 1.469154706580518734e+02
1.769108706815763128e+02 1.290315058956633720e+02 -4.692690235192200277e+01 -1.509758508287169718e+02 1.118763406909660745e+02 4.099271525531386828e+01 1.178594023226617367e+02 4.792791647281263749e+02 3.234829146823998940e+02 2.665852885396348597e+02 2.057388079765730708e+02 1.479747425083626808e+02
1.743212998619665086e+02 1.271880838989122537e+02 -4.608031059368337168e+01 -1.492338640615869565e+02 1.102381912018734056e+02 4.107939844041138855e+01 1.209217484141949939e+02 4.898336615321058503e+02 3.328008079100621899e+02 2.728897951183591317e+02 2.090882447763146104e+02 1.480026443292155989e+02
1.700403165479372944e+02 1.213425033602024570e+02 -4.870047978597676064e+01 -1.441886053628144850e+02 1.097715777438207851e+02 3.631751326327373164e+01 1.246693523940758297e+02 4.965301339162085696e+02 3.376676850280545068e+02 2.758427723602918036e+02 2.069669935470321889e+02 1.489465903719118387e+02
1.654518088168688905e+02 1.115573551484325918e+02 -5.294151601025563281e+01 -1.374927437193460946e+02 1.112163147178422520e+02 2.933301084628551436e+01 1.309143015907789618e+02 5.011315424297212644e+02 3.429682509898238436e+02 2.761309864159379686e+02 2.071591601339127635e+02 1.481234393650537697e+02
1.546159191764768366e+02 9.869044530041243490e+01 -5.488907763187678057e+01 -1.247267651388198715e+02 1.053017153097540728e+02 2.140045350595402596e+01 1.282736188442052878e+02 4.981314523067897539e+02 3.411462858275411349e+02 2.740905646018608195e+02 2.021904023497031346e+02 1.451943943640692964e+02
1.378264950104748436e+02 8.363283058677919257e+01 -5.414507074507501017e+01 -1.086568386224328151e+02 9.648235781727268545e+01 1.426440630351227234e+01 1.222552541212363053e+02 4.914226792656973544e+02 3.372016698856643870e+02 2.692974288498269289e+02 1.991663018456038117e+02 1.392815359639885742e+02
1.308878796906367370e+02 7.704584041674131356e+01 -5.391055208900309026e+01 -1.029803656545054054e+02 9.286020697051610284e+01 1.102234561830362658e+01 1.199593903803772150e+02 4.897833847407750341e+02 3.350578470352032241e+02 2.678716708904152028e+02 1.960885318243086033e+02 1.378867543156278543e+02
1.319618618273580353e+02 7.778849777809496402e+01 -5.224101563431231909e+01 -1.029172374633774751e+02 9.405500903737112139e+01 1.281734889521116472e+01 1.218324679653820937e+02 4.901254626478377645e+02 3.321527495969630195e+02 2.680838209291053431e+02 1.950240541759045243e+02 1.389879916168488023e+02
1.419544359125938797e+02 8.993996128928839084e+01 -5.089083584795441340e+01 -1.139237078557959109e+02 9.751735607983358989e+01 1.850036363881697454e+01 1.284617981207292132e+02 4.962086174683735180e+02 3.337344782860106420e+02 2.706624731157428982e+02 1.967782504444210474e+02 1.426121039176659053e+02
1.593184494110559513e+02 1.099907632166990794e+02 -4.935372883953658629e+01 -1.331190533596827379e+02 1.048038376794555404e+02 3.122978687560537026e+01 1.385316416984675243e+02 5.068113977171126407e+02 3.360082501713026204e+02 2.731169316415839035e+02 1.999409229275369455e+02 1.487891254430280128e+02
1.757417774129916666e+02 1.324335122500898194e+02 -4.325283551544578131e+01 -1.535333652365445971e+02 1.104874039945750042e+02 4.516914530762297630e+01 1.457336818269231742e+02 5.115911206698091291e+02 3.387188418183386602e+02 2.745845793930565151e+02 2.017903062858645740e+02 1.536240156269653596e+02
1.970697614715057853e+02 1.606735778833528627e+02 -3.650370753755361619e+01 -1.779933201792644866e+02 1.177953704368217842e+02 6.208224187936012584e+01 1.470618955860631729e+02 5.141970969572112153e+02 3.401421616912778063e+02 2.817929989630439422e+02 2.049398727538149672e+02 1.597645252785174819e+02
2.113014427049836286e+02 1.774109853590001080e+02 -3.191139217156516139e+01 -1.913715732847601316e+02 1.225801591072918768e+02 7.272861971721799534e+01 1.478541792169573625e+02 5.120206690808292933e+02 3.389993669054913425e+02 2.830312919818867954e+02 2.058798649227566955e+02 1.628650711360885452e+02
2.196121018763258235e+02 1.854652573669200706e+02 -3.311860835918024293e+01 -2.014091421150792769e+02 1.278763666753198294e+02 7.670338658569055212e+01 1.481152332330905494e+02 5.074654504900468623e+02 3.353867168372867695e+02 2.811006335297687428e+02 2.079267042477575842e+02 1.648412060636460978e+02
2.319698451908249694e+02 1.998931488398506247e+02 -3.014039943385625264e+01 -2.141233779255794047e+02 1.316015293338035690e+02 8.347352390803391131e+01 1.496132112075497389e+02 5.057101263091026340e+02 3.328811748764491085e+02 2.827867653506041279e+02 2.098148497985985159e+02 1.696500994857354954e+02
2.436910109268106623e+02 2.136088996591941793e+02 -2.807646929853888196e+01 -2.255283131246748951e+02 1.368281405410921536e+02 9.257659624994241199e+01 1.549373566228478865e+02 5.063222634657344088e+02 3.322559578985020039e+02 2.830868890319655975e+02 2.119680009054041818e+02 1.737980754124669431e+02
2.504461982741202064e+02 2.177759980713264554e+02 -3.059500793944365782e+01 -2.335371359664475506e+02 1.415410520953414277e+02 9.421287695109262472e+01 1.540427080108761970e+02 5.047311426928952756e+02 3.308365896738152969e+02 2.873813076025753048e+02 2.137244822359580212e+02 1.786903549129595490e+02
2.524452628268743979e+02 2.166211497505162527e+02 -3.665648118037844938e+01 -2.336015166630619433e+02 1.460088158824409845e+02 8.942604155576597691e+01 1.523301752198278507e+02 5.062697820997365170e+02 3.312495285653666883e+02 2.930825280159668864e+02 2.179117688441882876e+02 1.792336241496156788e+02
2.453785682239769699e+02 2.003631626491426516e+02 -4.521743536379847939e+01 -2.209354297025668359e+02 1.459322632484575877e+02 7.807573543311316655e+01 1.437173769699048478e+02 5.013193386041874646e+02 3.263644088741888822e+02 2.902163120766914517e+02 2.154173407848246882e+02 1.761870748988583841e+02
2.324947300650351281e+02 1.767251120807816847e+02 -5.468593591304452417e+01 -2.025208025297897620e+02 1.435069368119577575e+02 6.101874522605833562e+01 1.318182641392575078e+02 4.919057057471097778e+02 3.168596155225517919e+02 2.827916504080855589e+02 2.066542699836014378e+02 1.687949204809126229e+02
2.102258565721534467e+02 1.515445647194912624e+02 -5.869341414208457053e+01 -1.803553753799219237e+02 1.354686921544233087e+02 4.691032203180834870e+01 1.206336023748518613e+02 4.822962269815823220e+02 3.073235906786597411e+02 2.733495764177951628e+02 1.984528444082810950e+02 1.593309159940737345e+02
1.905457751538345690e+02 1.293752774265498999e+02 -6.025782764969457617e+01 -1.585494677007605446e+02 1.259015670961167075e+02 3.460613339947366995e+01 1.115870665631497616e+02 4.748333215209320315e+02 3.007011042503016256e+02 2.658365560674178596e+02 1.897487262021903121e+02 1.536001018861734053e+02
1.759912875169034123e+02 1.195967861277389943e+02 -5.441239695591092840e+01 -1.458082398189320372e+02 1.161742974689532133e+02 3.254976853563184136e+01 1.060758299765322334e+02 4.653374186965259582e+02 2.922907924742688692e+02 2.553442513487939891e+02 1.812809923651879274e+02 1.461922720202684047e+02
1.817185866492353341e+02 1.321585167895745769e+02 -4.846572109264727146e+01 -1.544605150173530035e+02 1.161002706921759682e+02 4.234234724562219299e+01 1.060722293505094314e+02 4.587209466069256223e+02 2.883935547440441383e+02 2.523021123735923368e+02 1.782686890687449193e+02 1.460035943861523151e+02
1.819795317565396999e+02 1.386587907635661452e+02 -4.237933778609239255e+01 -1.586837562562086248e+02 1.131735293274408605e+02 4.860263358737187644e+01 1.041095691333524371e+02 4.503649340059290012e+02 2.832597096224528173e+02 2.472862999560064452e+02 1.750821096964215258e+02 1.450624850346694927e+02
1.855360623171569330e+02 1.480200986979314450e+02 -3.647143520770863745e+01 -1.663020243157872073e+02 1.120264359856562493e+02 5.723291329308823094e+01 1.039369330417832202e+02 4.436823508589105245e+02 2.793231850436670243e+02 2.441939620623377323e+02 1.741482890473968439e+02 1.449451788427606118e+02
1.933292530073100295e+02 1.602271098570796539e+02 -3.212326392540419562e+01 -1.753288144829537032e+02 1.128173811685390859e+02 6.467801946471018937e+01 1.049379246274722419e+02 4.363466328978859110e+02 2.770081680489342375e+02 2.429629029157338778e+02 1.729039011925484886e+02 1.467989053407542883e+02
2.014648989627973492e+02 1.711099357391464650e+02 -3.021905019610319698e+01 -1.852114959867102471e+02 1.157533850497727315e+02 7.041023730242639544e+01 1.050421051165279636e+02 4.296883898696200959e+02 2.752840795713569264e+02 2.430388207836584797e+02 1.749354361636844999e+02 1.488727590233930869e+02
2.093734692800217658e+02 1.814370176754852366e+02 -2.807618176834644075e+01 -1.944757883954394799e+02 1.197025775809885033e+02 7.671746111256247502e+01 1.049581219277427522e+02 4.224404614928565138e+02 2.730345604936733253e+02 2.438569048849546164e+02 1.749518867447612820e+02 1.517278876845386719e+02
2.139679990394137121e+02 1.866751728083198998e+02 -2.623525534857283503e+01 -1.987947020342850237e+02 1.210951821667203916e+02 8.059754590549344755e+01 1.050532795527546028e+02 4.130161989955541344e+02 2.704332452347799745e+02 2.432693415423620422e+02 1.760030256312769836e+02 1.530829687950088669e+02
2.148367345441944281e+02 1.907600029606385590e+02 -2.408300244937792556e+01 -2.017976023389456373e+02 1.200577960453013731e+02 8.485715379214914833e+01 1.041148783269921552e+02 4.026120779948174686e+02 2.653451166394323764e+02 2.410273602587516848e+02 1.742263226224361574e+02 1.529143800674435170e+02
2.143534251804047415e+02 1.912048134562895711e+02 -2.220548606002805769e+01 -2.013164757360427473e+02 1.182030569490857062e+02 8.507570763127782243e+01 1.013265673465076162e+02 3.912593214805350499e+02 2.587331842735563328e+02 2.385074631806812704e+02 1.712820222123587826e+02 1.514615489520473659e+02
2.094098126482177520e+02 1.866168498363743993e+02 -2.181055679926393864e+01 -1.964901833845767953e+02 1.170511050658334398e+02 8.242569491147290250e+01 9.735353953716605702e+01 3.770395995951138843e+02 2.506010810631872801e+02 2.315429749176041412e+02 1.665198727803603731e+02 1.445319130025242771e+02
2.010895504618209202e+02 1.752689778523921973e+02 -2.388656549144691255e+01 -1.871291382768081064e+02 1.135381177334794529e+02 7.567280970419058406e+01 9.074910138017595784e+01 3.606522497975864781e+02 2.401414600949516966e+02 2.229691969524765227e+02 1.587614054611459835e+02 1.376914977663088564e+02
1.863219577397261162e+02 1.585337252645921922e+02 -2.662811492552581427e+01 -1.714865329383310666e+02 1.074837495111611645e+02 6.597308870055188379e+01 8.253727738317134310e+01 3.432707221682297245e+02 2.278667906842689206e+02 2.109431181991355686e+02 1.488883255058614452e+02 1.287230030899604287e+02
1.686598365666303039e+02 1.379398060303937257e+02 -2.988137500499669486e+01 -1.517788427241794977e+02 9.977532877180499327e+01 5.401206014302982084e+01 7.571408963288325822e+01 3.239901490597185330e+02 2.153038152427856460e+02 1.991221399130462260e+02 1.379218157279754564e+02 1.206667097262514829e+02
1.504503254137335659e+02 1.166080215022425932e+02 -3.176015037890718418e+01 -1.325389395365078542e+02 9.252142272002362233e+01 4.202629640090492558e+01 6.756665888750697491e+01 3.043249293516660146e+02 2.019277629922774508e+02 1.860800837695959160e+02 1.278559818009042459e+02 1.127127107051857280e+02
1.326093133940011342e+02 9.859771273990405405e+01 -3.308049625687036865e+01 -1.136815005925827933e+02 8.394013403737328360e+01 3.170830694344206080e+01 6.156824303996285863e+01 2.859347187968158437e+02 1.893273906717687964e+02 1.731452341185049306e+02 1.169674235624977001e+02 1.046061891380172000e+02
1.171107878151193091e+02 8.211726775767051834e+01 -3.206410275126943077e+01 -9.800831368546015199e+01 7.553811202031707239e+01 2.456094971135873450e+01 5.538672721154534173e+01 2.680486407240373978e+02 1.767466332943131988e+02 1.618422549005352948e+02 1.084919952845019253e+02 9.938908799077189826e+01
1.041297595101967346e+02 7.263821578740393647e+01 -3.026714288257285190e+01 -8.699486220021940142e+01 6.779787098315702565e+01 2.013963763351983260e+01 5.306825222601962366e+01 2.553405810360943917e+02 1.679453317926744944e+02 1.519005215238166500e+02 1.026205849972909476e+02 9.438922693338318481e+01
9.624543140785070250e+01 6.722868576448222200e+01 -2.812648557964719487e+01 -7.922717588614183626e+01 6.300075712046458420e+01 1.996005107761136443e+01 5.291938853966409084e+01 2.436577712742410995e+02 1.594405280963009943e+02 1.444275224565082567e+02 9.721716742288900548e+01 9.293442411001105086e+01
9.406358186297214274e+01 6.766314290138282672e+01 -2.535663500778242962e+01 -7.969878093765271387e+01 6.219430184702299158e+01 2.081253637232833142e+01 5.475948613933879017e+01 2.350047455219589381e+02 1.545828315685045595e+02 1.394687099896957534e+02 9.608090039637771440e+01 9.217772581213715455e+01
9.978438314252827013e+01 7.405919994300724341e+01 -2.386584248587723422e+01 -8.607157637755592816e+01 6.345478492005307203e+01 2.447375956829931809e+01 5.767599061226021462e+01 2.273426979647190080e+02 1.492917671350663795e+02 1.369702983109582703e+02 9.587036289138835343e+01 9.268623700481937533e+01
1.120728661878996064e+02 8.662447994454834088e+01 -2.418508520023327790e+01 -9.688790218111367381e+01 6.866430281657530088e+01 3.128181927850218713e+01 6.161355742918488687e+01 2.209868988677195034e+02 1.455290487488456677e+02 1.362296011873586679e+02 9.784656865102604684e+01 9.496801821518343445e+01
1.236068984464416189e+02 1.007794942158794669e+02 -2.293691054905165316e+01 -1.105589241351950989e+02 7.420985466296566813e+01 3.838389788101670774e+01 6.482079549047672629e+01 2.125174294738242509e+02 1.403730092442880562e+02 1.349701526706590755e+02 9.891022965003359957e+01 9.583877358431521998e+01
1.354119194218042423e+02 1.112537056360121994e+02 -2.313528385812590216e+01 -1.223499166998173280e+02 7.987940843354122933e+01 4.448200021319920694e+01 6.595112988950678812e+01 2.042537075378279212e+02 1.356346521776821135e+02 1.334460295074825922e+02 9.993273356965775633e+01 9.536349243463141079e+01
1.388297486948067387e+02 1.167464704006986551e+02 -2.200104361547914067e+01 -1.267495126866042483e+02 8.084323863703234281e+01 4.790710641846244044e+01 6.527265326467703233e+01 1.920266959995810225e+02 1.287215928007788932e+02 1.284597404686860500e+02 9.928842299403571303e+01 9.134056810309060381e+01
1.375665841012252031e+02 1.163766592304206569e+02 -2.125900353639377727e+01 -1.264414139298160933e+02 7.955798193466041823e+01 4.802010419112396988e+01 6.139966169093408865e+01 1.795001287488421156e+02 1.199630503270882969e+02 1.227334987946261009e+02 9.458066328776681075e+01 8.667883124553364382e+01
1.299553814968588767e+02 1.107451767476223239e+02 -1.826568573942002516e+01 -1.198554884354718979e+02 7.434665899779002984e+01 4.721376497761250590e+01 5.749487863764984752e+01 1.669512979913336324e+02 1.117468074252444410e+02 1.148903105790430317e+02 8.869287003628822674e+01 7.965896530541643017e+01
1.183178973537278011e+02 1.027948378889416290e+02 -1.535822146054744941e+01 -1.100725805627267562e+02 6.893115854117624508e+01 4.430510223900014211e+01 5.157104288979743245e+01 1.554195773487707015e+02 1.021424191873858831e+02 1.041879177751308987e+02 7.999121906457281739e+01 7.275078140629597101e+01
1.078287664861814932e+02 9.570878911446756376e+01 -1.225777176155584769e+01 -1.008187633335755891e+02 6.055049126647345048e+01 4.214611592015777575e+01 4.739143785248540297e+01 1.447119029956323573e+02 9.360015144323948277e+01 9.476419854989296709e+01 7.172489458546385777e+01 6.649873770534802020e+01
9.892437611436682232e+01 8.863322188058783979e+01 -9.326853026617722975e+00 -9.276861138246856342e+01 5.561849313205925682e+01 4.027754314548492687e+01 4.251307545627538076e+01 1.353097775927841155e+02 8.599116818350306346e+01 8.602329357214148331e+01 6.385056214731989144e+01 6.151276075178319758e+01
9.410472642394387321e+01 8.514061706795592954e+01 -7.922072158239219064e+00 -8.819008528761804655e+01 5.113453114116681064e+01 3.807590903354562784e+01 3.926062771065163304e+01 1.263896980779031196e+02 7.932526460924073319e+01 7.853896637086178600e+01 5.828297054974715508e+01 5.821068320028854259e+01
9.068241125411169890e+01 8.249332569436336371e+01 -8.129709723048863523e+00 -8.546658332525551316e+01 5.022971764473027179e+01 3.806163515342547043e+01 3.544056146665128182e+01 1.209694190957559670e+02 7.474229195038486750e+01 7.188338786756388288e+01 5.459569460761828452e+01 5.457331001248904556e+01
8.700045160019978141e+01 7.831307691799437976e+01 -7.024117257868583764e+00 -8.138013143652821668e+01 4.812347127001268632e+01 3.623900604427244332e+01 3.392867140190192998e+01 1.134660118150407442e+02 7.010841251024277199e+01 6.623761415308496225e+01 5.019755925159276444e+01 5.108218150895993404e+01
8.467958594179575016e+01 7.538159078023033999e+01 -7.009512796325132911e+00 -7.742287435534200313e+01 4.634307195859305040e+01 3.506975575339826179e+01 3.245080566388789123e+01 1.078571093127211640e+02 6.762683605137421239e+01 6.268638463529922689e+01 4.835656250621389773e+01 4.941792922560008350e+01
8.010357259512952055e+01 7.225229370654264471e+01 -7.020490522634753816e+00 -7.514246309555035452e+01 4.405527676690859096e+01 3.329838729079327209e+01 2.994299330074994003e+01 1.022741862150048888e+02 6.311200446285532450e+01 5.732115260034690607e+01 4.518600508030399965e+01 4.614619613981162161e+01
7.844231059734231337e+01 7.018771940248913666e+01 -6.122900103102834279e+00 -7.238563758587470431e+01 4.321413935299315767e+01 3.192233864276580491e+01 3.017269297572041609e+01 9.778979517449306513e+01 6.227891641240354659e+01 5.441517163013656244e+01 4.414382869133611820e+01 4.514697377512084842e+01
7.592986423389764639e+01 6.985425391989696209e+01 -5.968546528170594279e+00 -7.174426403944592323e+01 4.199950879699893136e+01 3.294203899182968343e+01 2.893265747053422032e+01 9.392535541744929617e+01 6.006509894560741714e+01 5.200669509838034088e+01 4.300656574524150955e+01 4.484421258958576573e+01
7.615925303059619011e+01 7.095920181790926051e+01 -5.159837092488565702e+00 -7.225478759701353226e+01 4.121183281594979775e+01 3.300848089862024182e+01 2.997137860184039582e+01 9.258765851594316132e+01 5.923139356831040203e+01 5.205587996888108648e+01 4.384434477394632523e+01 4.596697984013749760e+01
7.583589629552329825e+01 7.105093418498222491e+01 -4.944863140762891796e+00 -7.091685863806705470e+01 4.081604481414808561e+01 3.301351333513273545e+01 2.994541094172453910e+01 8.902296330967106996e+01 5.796582870050283987e+01 5.198839785205439057e+01 4.496093145093989563e+01 4.681502039010943150e+01
7.538926211949991796e+01 6.933355587422033750e+01 -4.161552684271612179e+00 -7.115566050580291346e+01 4.120605891066015403e+01 3.221849516555068504e+01 3.013546094653676377e+01 8.751024965954857748e+01 5.731036656557688502e+01 5.037929800354048382e+01 4.418838153829099014e+01 4.716714683987601830e+01
7.307059342593436213e+01 6.717988082104993453e+01 -4.739774511169872362e+00 -6.931061876887342521e+01 3.999795869697596373e+01 3.016592479202679300e+01 2.822319176587801337e+01 8.417022711736589713e+01 5.509231901566758438e+01 4.816722356237843172e+01 4.308881314501938675e+01 4.607710827489587047e+01
6.986946495125489776e+01 6.376320787209383667e+01 -5.181385634119306083e+00 -6.474334710141282301e+01 3.849737872894078805e+01 2.919009034561008065e+01 2.633034049404893651e+01 8.071536399474983625e+01 5.345320204630998973e+01 4.465552555592956452e+01 4.133007931708127813e+01 4.356835083341401571e+01
6.345832854796971390e+01 5.677556976375981179e+01 -4.869074945626117312e+00 -5.953357716606498684e+01 3.437863629809247357e+01 2.638572969608967256e+01 2.251172689204887689e+01 7.706632693988457561e+01 4.938734905291536847e+01 4.114198871673386293e+01 3.918432601801552551e+01 4.013245848320083553e+01
5.808933176500356410e+01 5.070449334323220825e+01 -4.317426765853870307e+00 -5.303338586149984479e+01 3.057908932735712426e+01 2.419987018500252418e+01 1.923952657629295260e+01 7.386345534667358947e+01 4.638371366300663823e+01 3.778576520945225781e+01 3.649355409660153526e+01 3.767183074896756523e+01
4.966799882107167008e+01 4.554830198592661361e+01 -2.942463194110040092e+00 -4.647023496994997060e+01 2.718128742120867969e+01 2.144459044206253751e+01 1.729464719559255315e+01 6.905480242136886204e+01 4.338039122694552674e+01 3.312226137325831843e+01 3.324162344695049853e+01 3.237317107474726186e+01
4.471731120823641703e+01 4.063177973520694763e+01 -2.281354313872785866e+00 -4.176390876463726443e+01 2.456423365648848289e+01 1.907436695914544345e+01 1.513609426455327878e+01 6.755632770941838317e+01 3.948911646752120674e+01 3.153126541730629029e+01 3.050443887822505573e+01 2.954927718498364797e+01
4.020245556493077288e+01 3.717609801526896263e+01 -1.726562964742757389e+00 -3.723977260909349241e+01 2.112930937670052955e+01 1.824545414837748680e+01 1.424474011573398258e+01 6.410384958187883342e+01 3.715508868185819580e+01 2.728409375819908789e+01 2.720057551712532273e+01 2.452807732203694258e+01
3.846070801540955131e+01 3.465205344577827873e+01 -3.083813236614704856e+00 -3.456575178272601079e+01 2.018317258143795812e+01 1.545075192618771709e+01 1.132200619930545926e+01 6.242684674554909918e+01 3.446158312956239911e+01 2.536997514802438403e+01 2.538429359840437627e+01 2.059012388976916341e+01
3.442641202706791859e+01 2.871481777423746706e+01 -3.575726779408034517e+00 -3.044210921669054315e+01 1.985878365797505296e+01 1.151546388669146559e+01 1.010703594126716709e+01 6.086682655896528615e+01 3.291511662428020912e+01 2.228921826934782047e+01 2.228585446390480129e+01 1.558060062056499362e+01
3.065533533061514149e+01 2.290404909319435589e+01 -6.826430344688109386e+00 -2.504117817379747279e+01 1.939842379600750633e+01 7.559803157019278963e+00 8.245071876207894945e+00 6.034607849913354016e+01 3.229097912832002493e+01 2.027304364706849427e+01 2.030098748236548545e+01 1.147379239619394120e+01
2.489357806003737039e+01 1.505665849418270597e+01 -7.773247786431813466e+00 -1.772169108442951213e+01 1.632395526709873934e+01 2.612321970529967174e+00 7.926594365120147145e+00 5.973929821530245476e+01 3.103307250927953476e+01 1.827757840666818367e+01 1.745715737355640940e+01 8.360912344302725785e+00
1.624172261548542195e+01 7.017218526581801896e+00 -9.083974185631943143e+00 -1.112782917661181159e+01 1.265813134813932095e+01 -7.073665581906032340e-01 7.187573985280702793e+00 5.942150406288429565e+01 2.935881702552804029e+01 1.538067433054755107e+01 1.348323350162914736e+01 4.592196729066624350e+00
9.480090196259840951e+00 5.174382204506555727e-01 -7.303720146667307844e+00 -3.602125884579649107e+00 9.181877660390144413e+00 -3.608469476325419034e+00 7.667310177006823046e+00 5.936059099412714346e+01 2.878170539928146354e+01 1.405177664135731241e+01 1.116672887900313782e+01 1.963124263422384441e+00
5.454866277472136815e+00 -4.532056858149519085e-01 -4.507214974784270467e+00 -9.771816323076307764e-01 6.578174896442637198e+00 -3.622206164167663278e+00 9.733047718600008835e+00 6.293219046849007015e+01 2.908401146923058889e+01 1.226653265345713351e+01 9.239691303677421530e+00 2.810008444817722495e+00
7.643732223365156564e+00 6.524936760876154374e+00 -5.191038490922420534e-01 -5.583426236318237201e+00 4.653288148403988522e+00 2.962038798624901048e+00 1.405516468942033903e+01 6.519982324993864609e+01 3.199439862457660055e+01 1.414645472081808464e+01 1.035575949454230837e+01 6.921152760326402920e+00
1.934073917085154548e+01 1.974053368876917247e+01 3.479799244552904902e+00 -1.805632874985434455e+01 8.424078219041772897e+00 1.159091335974562043e+01 2.034067954144734358e+01 7.052430701994866524e+01 3.844853823146068805e+01 1.950479267081649581e+01 1.532697703951824408e+01 1.506795629851985296e+01
3.438644642053025535e+01 3.913965857617530020e+01 5.907565791620404738e+00 -3.523111282844294578e+01 1.472775676654575605e+01 2.257775308006928228e+01 2.603912706909244434e+01 7.588937472549518759e+01 4.389163009492899903e+01 2.563032471240345345e+01 2.259507906524708076e+01 2.266113837953497523e+01
5.210993261693882772e+01 5.713928396748251259e+01 6.806378075629084812e+00 -5.319085671469267140e+01 2.317268113518737138e+01 3.114823139492175130e+01 3.162136710250785399e+01 8.172046576343065283e+01 5.055401926118418032e+01 3.431173439217663912e+01 3.130008015345606864e+01 3.206236920352747433e+01
6.441276962236848647e+01 6.869550031755720454e+01 7.181218462815904147e+00 -6.454988570753988597e+01 2.908863524548430490e+01 3.635698025432494518e+01 3.371890638891035508e+01 8.513585547427207700e+01 5.347112418323008143e+01 3.910645036751746773e+01 3.611595720478150184e+01 3.732809689646883555e+01
7.259367706593847913e+01 7.547161309862673306e+01 6.037323993029154678e+00 -7.251484395574013320e+01 3.380901613033954334e+01 4.057487250431309178e+01 3.428769864023558256e+01 8.906170442533461085e+01 5.602221389579754884e+01 4.466773648430270072e+01 4.167967964903603217e+01 4.165691380770323349e+01
7.458180896452148545e+01 7.934751666633364664e+01 5.966665771331637558e+00 -7.462787630326921828e+01 3.478390054510649065e+01 4.269260625608783499e+01 3.211117672051076255e+01 8.951197702174341941e+01 5.583855421436757638e+01 4.579256127023399614e+01 4.271739795903409487e+01 4.287115760414730659e+01
7.765355595830602908e+01 8.347225487112099529e+01 7.533212971504092970e+00 -7.834684686972008194e+01 3.520431075078715821e+01 4.630889783926533454e+01 3.203132733286622624e+01 9.203296994884868809e+01 5.695733357916171968e+01 4.774197051159902117e+01 4.568040434603413047e+01 4.460672996344283092e+01
8.051814483332412919e+01 8.888903565674678475e+01 1.061687921079628083e+01 -8.329630257595175635e+01 3.479172202714710238e+01 5.048281828368100577e+01 3.187888881480376924e+01 9.259877955851774800e+01 5.771617741065469431e+01 4.966292707403027151e+01 4.680496065045398524e+01 4.763228500858727443e+01
8.211057061744688212e+01 9.544960365619536447e+01 1.426386509770867761e+01 -8.674429643699504311e+01 3.454209435384684213e+01 5.514686256316525004e+01 3.365272235936176060e+01 9.414316774330865201e+01 5.974198324222513179e+01 5.174797345613804822e+01 4.950758466182608686e+01 4.892978362904251100e+01
8.193246197634817918e+01 9.855208998069134907e+01 1.861620370584945405e+01 -8.872162415540952907e+01 3.113793349391792020e+01 5.971197266895162414e+01 3.577708863875587753e+01 9.453765517937948459e+01 6.174279621260664186e+01 5.374875925149026301e+01 5.184685154960872921e+01 5.061536990339923392e+01
7.983274938765346462e+01 1.001770290326528681e+02 2.072429993112643487e+01 -8.846467273149697519e+01 3.036490702498557326e+01 6.085841490333474724e+01 3.686457524377772188e+01 9.622637615688236679e+01 6.211722776897228471e+01 5.406749328779188346e+01 5.282091638127501909e+01 5.127844893723699471e+01
7.529150590356057648e+01 9.825612379735217417e+01 2.192624657640625685e+01 -8.537026711010017266e+01 2.736799070334853212e+01 6.117331220563465877e+01 3.790523529672321246e+01 9.564677016813121213e+01 6.198815254079116244e+01 5.551112993217363822e+01 5.392992900805027290e+01 5.069268637818295531e+01
7.264413774910183008e+01 9.633759614177694175e+01 2.347882218187345060e+01 -8.243018852000744801e+01 2.456330321291669705e+01 5.995937128087690127e+01 3.794185479132706718e+01 9.788469849765336050e+01 6.108748902206438913e+01 5.708572495750506448e+01 5.395089031605441221e+01 5.210791735034497663e+01
7.058065576406625041e+01 9.628532991864450707e+01 2.740632385006965066e+01 -8.237872374357206695e+01 2.198384369143157002e+01 6.229429677030034895e+01 4.030139036726873059e+01 9.947815661833762135e+01 6.330708162832861063e+01 5.832897917427515466e+01 5.556226855631241790e+01 5.242358940328621486e+01
7.513416685457350752e+01 1.042967689263497562e+02 3.140425028499195648e+01 -8.785985888946601108e+01 2.283884010504557338e+01 6.795603579970922681e+01 4.517616161359975280e+01 1.025749958470507153e+02 6.657389530369300701e+01 6.254045347112765540e+01 5.846819014109391333e+01 5.734708523456102114e+01
8.317003579186666684e+01 1.168668242190514519e+02 3.460488560511070943e+01 -9.873508396155214939e+01 2.527608826748156901e+01 7.564824637818684039e+01 5.183629186599750938e+01 1.077821285734166565e+02 7.258949063462294760e+01 6.689909712637577854e+01 6.383892933956913396e+01 6.193189308889584765e+01
9.533535143212863261e+01 1.301368677400202785e+02 3.755303048306173253e+01 -1.123145542388297997e+02 2.956253311859287436e+01 8.469906143073873750e+01 5.821205018186878988e+01 1.135911074540291992e+02 7.942814064123102469e+01 7.408916384943402988e+01 7.102585514377247478e+01 6.991894497104310346e+01
1.054941604465359006e+02 1.421431571314090547e+02 3.900597091951682671e+01 -1.232252938114466900e+02 3.314663691606698137e+01 9.132576423259129683e+01 6.402925925192634793e+01 1.178721915993114777e+02 8.477898932450007408e+01 7.996615493342279990e+01 7.781782509797615432e+01 7.528177861658087977e+01
1.132426298414703751e+02 1.520068981928553740e+02 3.972034558519798964e+01 -1.322415244353704793e+02 3.771901684938618615e+01 9.532862557361264066e+01 6.791208417916104167e+01 1.235828386227823330e+02 9.060367408818899548e+01 8.618767159143207834e+01 8.430884394706895080e+01 8.025095477824125112e+01
1.174472236701817565e+02 1.572271912769960238e+02 4.091732208177293018e+01 -1.363110958916247739e+02 3.878372814894375153e+01 9.946145161994417094e+01 6.869818438745188871e+01 1.271262294136472661e+02 9.412323575168683476e+01 9.124905406314863399e+01 8.834072815676458390e+01 8.441852232542289869e+01
1.190584905509053186e+02 1.615102735384921857e+02 4.251618269885721446e+01 -1.397370878884219110e+02 3.926077676886065149e+01 1.025075552415035816e+02 6.934005993650090716e+01 1.308971029581032610e+02 9.789909433171705189e+01 9.464548838003723574e+01 9.171120270122217732e+01 8.763405660790297702e+01
1.197293403967725709e+02 1.645123791065274759e+02 4.482775282318135623e+01 -1.416193135167303012e+02 3.792262349289847378e+01 1.056016243546394264e+02 6.712654394157682702e+01 1.324407889695513632e+02 9.940951318439742579e+01 9.819365624299696549e+01 9.355298731209686025e+01 8.965904215366784058e+01
1.194168408720782253e+02 1.661108477108816714e+02 4.652995135393970827e+01 -1.422835912842030268e+02 3.825275747813611815e+01 1.069921814695013182e+02 6.634659619995652236e+01 1.341901328605573269e+02 1.019599333042452116e+02 1.017508151864367250e+02 9.657517784226907054e+01 9.171121951041513398e+01
1.187074249254490752e+02 1.657898803035504045e+02 4.884153267053395808e+01 -1.417095250527588917e+02 3.619077308909745483e+01 1.069273912962461424e+02 6.412806648903692519e+01 1.344800104350400716e+02 1.033718394643079819e+02 1.043197300063354476e+02 9.874291659775342112e+01 9.365660239686711463e+01
1.185272070989266098e+02 1.670060241130916268e+02 4.980412584895670847e+01 -1.423556695510763461e+02 3.527738970184937983e+01 1.078522360394575799e+02 6.407342589711565495e+01 1.362375777968795489e+02 1.060266187787594845e+02 1.069917675983862182e+02 9.983689421471960657e+01 9.496996417892711406e+01
1.174644480733320790e+02 1.668740038370889067e+02 5.014490785622255231e+01 -1.407955186385688933e+02 3.390217169752917670e+01 1.080435874842473396e+02 6.312605137811797107e+01 1.356532268609505536e+02 1.065245016672917728e+02 1.076233228811686473e+02 1.016221863503737239e+02 9.568755907769028113e+01
1.200500841533715004e+02 1.678617630695052583e+02 4.985680551807538308e+01 -1.427626301383523639e+02 3.568153152224725488e+01 1.086868386499127439e+02 6.232063598937315874e+01 1.371441338878078682e+02 1.089599846361737292e+02 1.090693453281263885e+02 1.029183892396877411e+02 9.703676535846940965e+01
1.204281351370374722e+02 1.694850288312175621e+02 5.017564172978502057e+01 -1.445053083111180854e+02 3.687340121140471183e+01 1.100211441208928846e+02 5.949443598469080285e+01 1.360985249825521919e+02 1.088939103212602078e+02 1.095381962068710351e+02 1.045557041290087170e+02 9.683786652046121901e+01
1.238102135471316814e+02 1.719055805446713237e+02 4.907938117761960939e+01 -1.468674403616468283e+02 3.780589812244812009e+01 1.098311002272902499e+02 5.730504123681917861e+01 1.344763359161277378e+02 1.091277728247949170e+02 1.119314808471569620e+02 1.053166388361054544e+02 9.796836649693925381e+01
1.246038143716676387e+02 1.725969529826039661e+02 4.894583615772813090e+01 -1.483753748161595070e+02 3.890055888899446757e+01 1.116881101990245639e+02 5.465946525834567638e+01 1.330257759775228692e+02 1.089023730057359529e+02 1.118957337694917840e+02 1.046480200642112379e+02 9.786409657471074297e+01
1.275648550029954862e+02 1.755718996217342180e+02 4.981715783569495670e+01 -1.517694355498024379e+02 3.895001898213583758e+01 1.128189022590362498e+02 5.064847790991820631e+01 1.307871198361725362e+02 1.083606946339128143e+02 1.128343521416597355e+02 1.061663469352594547e+02 9.963560201937056604e+01
1.297146667969684870e+02 1.776488890966449219e+02 5.005323783524534065e+01 -1.526682820378364625e+02 4.057590999501592677e+01 1.146507829516034889e+02 4.678036918579652337e+01 1.280841493614987883e+02 1.070432730910608257e+02 1.138907249750929509e+02 1.049590635891549084e+02 1.009628582955315039e+02
1.301508749624902350e+02 1.790193457797352892e+02 5.073604358380816137e+01 -1.548395964765960571e+02 4.128035877583196367e+01 1.152080776952455778e+02 4.185312525481798218e+01 1.251213598094722244e+02 1.055497190406680090e+02 1.132592630507372178e+02 1.052427034436915108e+02 1.009456168519258199e+02
1.299751414934297031e+02 1.788782842254665297e+02 5.113340356228435724e+01 -1.543229871929929686e+02 4.007582670911313016e+01 1.147655537448414265e+02 3.699423317934248701e+01 1.203523331796747158e+02 1.032481276143199977e+02 1.129477201575386403e+02 1.032202727333914254e+02 1.018462129404556720e+02
1.278543477722725470e+02 1.792440958575765819e+02 5.161228738707558961e+01 -1.523177789172259509e+02 3.855262590914377085e+01 1.160292167367871059e+02 3.028585812222424067e+01 1.163327190931763937e+02 9.998850488134485204e+01 1.108647662516925578e+02 1.023291453466378300e+02 1.013535216001528880e+02
1.242990697722555637e+02 1.766416007567504494e+02 5.300436427670518214e+01 -1.505623730615584464e+02 3.618797472414811267e+01 1.151355019970156661e+02 2.331309998595703448e+01 1.097964485968979034e+02 9.551509216473696995e+01 1.072753293206193348e+02 9.953881167351171655e+01 1.000439141136549495e+02
1.204170257646093773e+02 1.721337195704881537e+02 5.367370375316577480e+01 -1.445933958038626770e+02 3.387608611529309144e+01 1.143886936800910945e+02 1.470056274556697318e+01 1.035733034408280275e+02 9.112345430872615282e+01 1.040940098714690265e+02 9.661572400864719157e+01 9.866584599523241650e+01
1.123445245122294835e+02 1.646366869533443946e+02 5.429358968135130681e+01 -1.363552431621426990e+02 2.878615746372894080e+01 1.101631913622377255e+02 5.657769894118167109e+00 9.672844403290456228e+01 8.647236701351074828e+01 9.866091851926471179e+01 9.273793296795231811e+01 9.464225142885963749e+01
1.025694914584767474e+02 1.535741734596968513e+02 5.299378528344407613e+01 -1.265011412963329462e+02 2.405922855936236004e+01 1.033120197014645925e+02 -4.907034008631148581e+00 9.003053042147520557e+01 8.154893881597548955e+01 9.352176710736713972e+01 8.809225158963774049e+01 9.023339593933141600e+01
8.769513840040228558e+01 1.380913067880981657e+02 5.243259197340762512e+01 -1.118302968023925104e+02 1.810798639372204377e+01 9.559145225946731728e+01 -1.529953059074875732e+01 8.019515279258716589e+01 7.401119714929131987e+01 8.522366263497238492e+01 8.133192381099691204e+01 8.243858240485702993e+01
7.083643407682782822e+01 1.191080434627517093e+02 5.016837484222893551e+01 -9.393964325971052176e+01 1.071371965829163209e+01 8.534955389473712728e+01 -2.581702859984977039e+01 7.211536387800079240e+01 6.619714559118449415e+01 7.781583143103989642e+01 7.356636818133476652e+01 7.458732564009659427e+01
4.963033382336429611e+01 9.607628311998703907e+01 4.934117841630554580e+01 -7.265462151167233174e+01 1.571789255440190880e+00 7.216076755609000770e+01 -3.644261310312948865e+01 6.212434594745028704e+01 5.534834785316663641e+01 6.764752217401041889e+01 6.534019240999461431e+01 6.555135658021325185e+01
3.110862615518772500e+01 7.606052848293907687e+01 4.725127136113689374e+01 -5.335281039641439094e+01 -7.327111905098521838e+00 6.248805402347768734e+01 -4.459284458120623640e+01 5.560093415828617225e+01 4.779038445849023020e+01 5.943099754794821621e+01 5.829867837338077408e+01 5.880512027654517482e+01
1.759391036292853983e+01 6.331140771125273403e+01 4.682356612097954240e+01 -3.934365604666420069e+01 -1.429072460000907441e+01 5.494444936996442408e+01 -4.975627072311253585e+01 4.859851401467422960e+01 3.966671689324793704e+01 5.288100531412127481e+01 5.255262543685337562e+01 5.546946992043003632e+01
1.136175843781657413e+01 5.969082404420965560e+01 4.920105206322022440e+01 -3.507597994885256298e+01 -1.752536885088759533e+01 5.410270951009651696e+01 -5.010318945576305794e+01 4.562196576888175059e+01 3.744709087211523268e+01 4.858829166131403099e+01 5.104869494805313224e+01 5.381206852265631113e+01
1.554646745738297575e+01 6.691745615125861946e+01 5.333437622703505099e+01 -4.020111414653143100e+01 -1.769921153282126625e+01 6.042274881016327015e+01 -4.729769724841968070e+01 4.519262284363859550e+01 3.643140774119972036e+01 4.831462703258043945e+01 5.217998430404527710e+01 5.770092612143850630e+01
3.125132961482655602e+01 8.796130833523704950e+01 5.715468466778045808e+01 -5.948098422999307644e+01 -1.249090380209141671e+01 7.184096067573699429e+01 -3.946385254827895750e+01 4.873337624652727840e+01 4.105176296401702274e+01 5.217383860100702009e+01 5.850767373240674374e+01 6.456704730116520352e+01
5.661176476620177311e+01 1.168981899411491696e+02 6.071221638552837874e+01 -8.602707207669831746e+01 -1.066397756594113400e+00 8.969031753924264194e+01 -3.169654182101638540e+01 5.239542632442396553e+01 4.653830624187440890e+01 5.964991022657692099e+01 6.636567927301230441e+01 7.451236734560963271e+01
8.940127254308657712e+01 1.483119642341440283e+02 6.116688557056737352e+01 -1.180299460942844973e+02 1.435755957999103849e+01 1.053136731764882938e+02 -2.259084715854974235e+01 6.011762164125608621e+01 5.524900409013424252e+01 7.128728405239678523e+01 7.595508064857197894e+01 8.629298500611142231e+01
1.169392900325673708e+02 1.755494717194681584e+02 5.884116314154665872e+01 -1.464158660366177003e+02 2.888595958313610623e+01 1.180809737471377474e+02 -1.587354803939891390e+01 6.479194532236175519e+01 6.367400717922911468e+01 8.007925404200967989e+01 8.559203064710085584e+01 9.446507303452304427e+01
1.384742983942524575e+02 1.931918863322016762e+02 5.466030650769261001e+01 -1.648784834903377714e+02 4.242340294573883597e+01 1.246399309546550853e+02 -1.247463754238156142e+01 6.963536465807511888e+01 6.848795878344850507e+01 8.826470964431780430e+01 9.120385942924021094e+01 1.005387350357245140e+02
1.478302135752284130e+02 1.981080394129562308e+02 5.094553525227253488e+01 -1.723901351598589429e+02 4.884591051293461561e+01 1.244827295939186627e+02 -1.025943708674743071e+01 7.219009844610155824e+01 7.142565671067998778e+01 9.059064222210014350e+01 9.466614783706265257e+01 1.018113146937867413e+02
1.499450339135720185e+02 1.938712546261425587e+02 4.597579725494016145e+01 -1.714230788199856192e+02 5.300164082009276001e+01 1.203940130136797109e+02 -9.965250171716226291e+00 7.368261843311465498e+01 7.233269877725440722e+01 9.149092300616769080e+01 9.442835918236683312e+01 1.016320436958572060e+02
1.427936472261456515e+02 1.820843058635478542e+02 4.034860298114994492e+01 -1.616138727329805818e+02 5.143777972277898414e+01 1.113018237832391293e+02 -9.227303213534957749e+00 7.094310177500582881e+01 7.115254015517780317e+01 8.775082253121381370e+01 9.244556148251669470e+01 9.704980064495740066e+01
1.312784625905666189e+02 1.628524039510833177e+02 3.403942729797405775e+01 -1.458506532768698207e+02 4.819617863837134308e+01 9.880163252491976777e+01 -9.589492614764198564e+00 7.001279556628716705e+01 6.820264604035422451e+01 8.397582290815577721e+01 8.836308456242095133e+01 9.140168635599307834e+01
1.130815657884787413e+02 1.380538456501348037e+02 2.840405190528390378e+01 -1.255740622101999833e+02 4.137430121008670625e+01 8.346389846137333279e+01 -1.090711816056870020e+01 6.468445844607987283e+01 6.286657479694299155e+01 7.831712323549240296e+01 8.137093311761539383e+01 8.366490562828028033e+01
9.027664773274935328e+01 1.110693287221774739e+02 2.189704246539743338e+01 -9.978397676723227505e+01 3.391958138590697303e+01 6.626081033915174601e+01 -1.243351625707895813e+01 6.110345944803404450e+01 5.674638417130610435e+01 7.078537295205265423e+01 7.379724565501267364e+01 7.494212051591799195e+01
6.607020919061140773e+01 8.274488464856479197e+01 1.857063469290867985e+01 -7.415221055438880171e+01 2.392166393792403767e+01 5.159217368975735951e+01 -1.405058810588225526e+01 5.583209357245816307e+01 4.982007002049583377e+01 6.250708407545236867e+01 6.543654088037200722e+01 6.565995996702392290e+01
4.737970799609662720e+01 6.301181707136026233e+01 1.616819133512437645e+01 -5.531159860609950130e+01 1.540652133648680788e+01 4.052423215922772926e+01 -1.403350959062369441e+01 5.113021902558068632e+01 4.456127732003025699e+01 5.463260722612027109e+01 5.845799915086700338e+01 5.825668108745174578e+01
3.689608741362950894e+01 5.384792278032475821e+01 1.664635856137649839e+01 -4.500242232637975803e+01 1.104113986041383910e+01 3.672958557664311030e+01 -1.132833954012436983e+01 4.793370416262818168e+01 3.913360144753006153e+01 4.926451846892975084e+01 5.263835565648026460e+01 5.415479254997354275e+01
4.138575490104778964e+01 5.966466189512754426e+01 1.855310611072426852e+01 -4.919707131514913812e+01 1.236167619854125554e+01 3.988848032421516621e+01 -5.664175997054880618e+00 4.683914445592682796e+01 3.853535387045010197e+01 4.767960329712259693e+01 5.040166069167594998e+01 5.407286482807369055e+01
5.243619719196038886e+01 7.341014409091170023e+01 2.064097177407017369e+01 -6.138446523033130831e+01 1.737645669204228582e+01 4.698684141251457902e+01 -2.118885566973168100e+00 4.458095898851011185e+01 3.673944521135717167e+01 4.565763096040655711e+01 4.898185955536159497e+01 5.383315945485220055e+01
6.990397080567342414e+01 9.070639055198414269e+01 2.192029420600253431e+01 -7.874684932608496979e+01 2.475188343267856439e+01 5.644570108031958000e+01 2.586799780726574127e+00 4.622044426447492071e+01 3.809315071018846766e+01 4.785620144824894595e+01 4.977865266851194548e+01 5.491458480022098598e+01
8.328560826872336520e+01 1.046787516942692093e+02 2.137441463714180045e+01 -9.330259369484939214e+01 3.128688388080123062e+01 6.212579350645022203e+01 3.722388281889071671e+00 4.504747721902615609e+01 3.773093720775466409e+01 4.788075661177241216e+01 5.022445323213003832e+01 5.437119536991175295e+01
9.394796778399361870e+01 1.124214251840426613e+02 1.944389469844882257e+01 -1.023642898226918732e+02 3.825435906388996443e+01 6.567217240256192667e+01 4.367322673249606879e+00 4.371914399113420302e+01 3.845922880364750540e+01 4.828909254911491900e+01 4.778767900137297175e+01 5.181952972421000680e+01
9.604052055161348278e+01 1.133630985839822074e+02 1.676613577140656375e+01 -1.039595386043053651e+02 4.057197303285291667e+01 6.484414127261831595e+01 1.651699182710992808e+00 4.125867536499605848e+01 3.489899554357801037e+01 4.572895238181727251e+01 4.460084352008564679e+01 4.723403416178145164e+01
9.422086923062795449e+01 1.082527311432046133e+02 1.348101105166571045e+01 -1.009154766638408631e+02 4.149367403931077547e+01 6.016571851942663329e+01 -1.911879065955827128e+00 3.759700909336240215e+01 3.025696879798758232e+01 4.197401033180997132e+01 4.038211308081344697e+01 4.059037300992145703e+01
8.628317430495853557e+01 9.665346884729385124e+01 1.150927434967130303e+01 -9.047639388761000134e+01 3.783974862875736278e+01 5.377896419011002394e+01 -7.099846156353716964e+00 3.165090442996108422e+01 2.425317346295027221e+01 3.716836235854812287e+01 3.415423717420656402e+01 3.350905863226495285e+01
7.407373278866108990e+01 8.267167189403345162e+01 8.659396186818741015e+00 -7.737656817635337347e+01 3.405497539541573104e+01 4.491406521922189654e+01 -1.046566526839081135e+01 2.681413747277912307e+01 1.826596765249990639e+01 3.066094460097091812e+01 2.841773491345449187e+01 2.577341745066778955e+01
6.062641541000277812e+01 6.618770149842585226e+01 6.267630424833117608e+00 -6.275371301899986065e+01 2.831578479931368264e+01 3.670561588337471193e+01 -1.198721415757102449e+01 2.040559550415241574e+01 1.369680320842305754e+01 2.405523449585885487e+01 2.280802356719921420e+01 1.902564458532054203e+01
4.849850004993196251e+01 5.194959802648109815e+01 5.293327814362522865e+00 -4.981145407296697414e+01 2.294482087497295453e+01 2.867703568076593967e+01 -1.200369549992726270e+01 1.803284861299884767e+01 9.876779470054671606e+00 1.909017789445435653e+01 1.900567563024039686e+01 1.411837361834912485e+01
4.055796158721956601e+01 4.188990424289145409e+01 3.437626333562154635e+00 -4.067674919565050118e+01 1.947807684756477897e+01 2.269821031124715560e+01 -1.074577578207993156e+01 1.489072075800511641e+01 7.898265433786769485e+00 1.602247095707718927e+01 1.530296237019839012e+01 1.094149406006018843e+01
3.848267376086947422e+01 3.877828589441457297e+01 2.125355100540911035e+00 -3.782697922120334511e+01 1.800267446093974399e+01 2.038369017419191209e+01 -7.517437768621062055e+00 1.455923412769501546e+01 7.371398385506600981e+00 1.544586599327204368e+01 1.433635212515261514e+01 1.125239187353499482e+01
3.831469890972987002e+01 3.667906537885286866e+01 1.289229288796753359e+00 -3.635213570045589648e+01 1.939636723641696037e+01 1.907789357860830037e+01 -4.804659942540539852e+00 1.418440223775781739e+01 7.466711973574565953e+00 1.457850865534536844e+01 1.301739780028164617e+01 1.002242788787935979e+01
4.021988126263660490e+01 3.814033180719137306e+01 1.682226437849931311e-01 -3.834137095501551329e+01 2.105113230788539624e+01 1.902964252453157812e+01 -2.114836835325001108e+00 1.575694728980212567e+01 8.338172277228141027e+00 1.614568821635698015e+01 1.313768645876789520e+01 1.014508623499887818e+01
3.976258006361062769e+01 3.710836226260277471e+01 -7.023915403264101576e-01 -3.691591538333847922e+01 2.089541423620048022e+01 1.838677298555955275e+01 -1.991454140380367832e+00 1.357268261498017914e+01 7.845889028062674520e+00 1.507394130425367784e+01 1.218361559840710306e+01 9.165621552683285600e+00
3.902507377493986240e+01 3.526875538230530793e+01 -2.434292516792334382e+00 -3.604167978591339505e+01 2.108792183858117397e+01 1.581688107989147341e+01 -3.238001513217197314e+00 1.401874047998269823e+01 6.162421649579574279e+00 1.449672114729433225e+01 1.131800562310124114e+01 8.376246689320648642e+00
3.469913523087811313e+01 2.857143370839971297e+01 -5.318759654783399071e+00 -3.100890467977280096e+01 2.098700722406183772e+01 1.199887381817983467e+01 -6.401650008641063039e+00 1.003802799358337161e+01 2.369540034405413831e+00 1.168741586347202421e+01 9.564012584667077377e+00 5.846276878706461844e+00
2.990865437691344653e+01 2.103004702961663952e+01 -7.709806425661309248e+00 -2.506346840866444836e+01 1.978143112091476397e+01 7.102744325677719850e+00 -1.049779223761248659e+01 9.184664156146464364e+00 -1.360746918542729444e+00 8.113512679041653186e+00 6.083182278276970223e+00 1.847599131977078368e+00
2.224776671635327219e+01 1.325041903200976279e+01 -8.198484508001985915e+00 -1.712965475000442339e+01 1.597106562179432565e+01 3.514365710256926789e+00 -1.565330973181233709e+01 3.673482030659379394e+00 -6.637714569769451955e+00 3.122000451732793724e+00 1.800408449948807998e+00 -1.269714179749728222e+00
1.592473162303211964e+01 7.487580476427489806e+00 -6.578193109902684910e+00 -1.168419419827032968e+01 1.115642588958135661e+01 7.276576705505329867e-01 -1.717944635604461823e+01 9.815570929174864956e-01 -9.613905562400212546e+00 -1.930999523869344481e+00 -2.039400672740590892e+00 -5.187640723146743404e+00
9.541037235899986868e+00 3.692018054824100393e+00 -3.767091860678712933e+00 -6.255750092595993905e+00 7.487714953284070774e+00 -5.011085356640789801e-01 -2.012933978597522966e+01 -2.088959138734157062e+00 -1.332765867709214547e+01 -4.814341638810243573e+00 -4.853785119456580865e+00 -6.350185330894450253e+00
6.878845091120436628e+00 5.065068078512332761e+00 -5.814377545923417046e-01 -5.357704460447076045e+00 4.762809214867858465e+00 1.728267728471847509e+00 -1.830320764893900787e+01 -2.317619913770604612e+00 -1.252471651086572635e+01 -6.425214089301943154e+00 -5.688290525912200302e+00 -5.831425434306294342e+00
5.999217452584597154e+00 6.003757474827549068e+00 1.518253992569770672e+00 -6.004526417300454888e+00 2.964618787294373448e+00 3.257873464757968573e+00 -1.742705105825329781e+01 -3.743165826316957379e+00 -1.294255125637039328e+01 -6.738290971516813777e+00 -5.607781504532400874e+00 -4.840018498583610551e+00
8.544790102522430431e+00 9.705395028384300460e+00 3.612828852154954973e+00 -8.342403081057019776e+00 2.354033040179206449e+00 6.499706258749681886e+00 -1.531754098587176571e+01 -8.793786949635199468e-01 -9.823859580305089878e+00 -4.733930992960402762e+00 -3.829690207202482544e+00 -2.733585289092175685e+00
7.280925000008270587e+00 1.134018344265261291e+01 4.810830491536704834e+00 -8.890686508468398586e+00 2.451051681453957798e+00 7.887964933699227466e+00 -1.375071004782171435e+01 -1.432508589403920007e+00 -9.863371225215157523e+00 -5.413639586793125957e+00 -4.336219963538758826e+00 -3.377596579021159062e+00
9.477444653747486569e+00 1.182111512280837751e+01 5.178270491161424793e+00 -1.094478591291334091e+01 3.381583953098092454e+00 7.382741087448534856e+00 -1.050245916883097408e+01 1.302211169611947050e-01 -6.849663002247935673e+00 -3.878264920647706671e+00 -2.940296089610193064e+00 -1.976548536912742016e+00
7.724225732001499978e+00 1.036916007911277049e+01 4.164313450339562017e+00 -8.456097170912380889e+00 2.697522972750437287e+00 6.773637991547586168e+00 -8.059529612076548943e+00 3.691662478206638731e-01 -6.914926252006707408e+00 -4.333862058965334718e+00 -3.292828130946927168e+00 -1.564879913562133185e+00
7.869504866500465212e+00 1.042059499016052548e+01 3.416888817507726994e+00 -8.513262528440666443e+00 2.669214684060619458e+00 6.605600216613037645e+00 -3.627734595729692479e+00 1.559989866940622250e+00 -3.137419636460339945e+00 -2.402460562897424268e+00 -1.389561791315557793e+00 7.245824119329861146e-01
5.017465382963704812e+00 6.001117187248239837e+00 1.359190602925382185e+00 -3.764060137136698625e+00 8.209179578218246398e-01 4.360232337553763493e+00 -1.593047476310251120e+00 4.592835393760347218e-01 -2.724982190045087904e+00 -5.331638186237035448e-01 -2.007515696983925568e-01 1.799945721788442698e+00
2.279766088314211903e+00 2.782903183656205481e+00 2.979748723386264064e-01 -2.364427100521770519e+00 7.215822380159829796e-01 1.359510510583900267e+00 1.574679229167470218e-01 9.707301802920716982e-01 7.530212364815684623e-02 3.262701721871812954e-01 6.625752429974197943e-02 8.189453851388371897e-01
-6.578000900653504068e+00 -7.621359385487987304e+00 -8.884565711323829662e-01 7.465711206796069810e+00 -2.360330587953642922e+00 -3.219868285985032941e+00 -8.191454603801247014e-01 -2.024272917037174491e+00 -9.142193801103367656e-01 -2.090779560306615381e-01 7.152784838413162039e-01 -1.060399318783684874e+00
-1.672539922879801821e+01 -1.815201393348975856e+01 -1.558702685356005535e+00 1.825630878995599105e+01 -7.426350926158192145e+00 -9.816234245093703237e+00 -3.898846372167134700e+00 -4.696002542260869994e+00 -3.193034205305303352e+00 -1.549600875376616171e+00 -1.187545632674389839e+00 -3.818835167034480005e+00
-3.923910567859123688e+01 -4.189892615813951693e+01 -2.539247694922999177e+00 4.178896051105800780e+01 -1.846384544145723083e+01 -2.131743160615533128e+01 -1.257606558439458411e+01 -1.307939648905826679e+01 -1.067627746462103389e+01 -7.138996490162576869e+00 -8.028008184327138252e+00 -1.195670572769193463e+01
-6.280437267204054308e+01 -6.225912161622359520e+01 4.329164760592811301e-01 6.289063746882032291e+01 -3.119488614185712549e+01 -3.075480498500887450e+01 -1.911468532399413078e+01 -1.885514069397682135e+01 -1.786233784488918630e+01 -1.240441463154467527e+01 -1.338419234520242185e+01 -1.736568205912821483e+01
-9.970973635946700142e+01 -9.541499284429912109e+01 4.379997464924409556e+00 9.898539087519017698e+01 -5.150828294952367514e+01 -4.475958045715623257e+01 -3.067727909512691653e+01 -3.009026900971914742e+01 -2.902376698798577692e+01 -2.256607104887372728e+01 -2.368197570097168381e+01 -2.716144646668609752e+01
-1.231112015986730910e+02 -1.063735451999482393e+02 1.722615576016734451e+01 1.160609646451562753e+02 -7.000913136806495629e+01 -4.392229057066856512e+01 -3.350423297863788008e+01 -3.411367979266471195e+01 -3.255250138131482629e+01 -2.775438975333462110e+01 -2.794945826262735267e+01 -2.936748937277391747e+01
-1.624890383812822563e+02 -1.369936168258304292e+02 2.759565532793227050e+01 1.519817629761674596e+02 -9.516546087815279975e+01 -5.382316632269967016e+01 -4.058542401640838904e+01 -4.575079104805108443e+01 -4.294560228090306708e+01 -3.728254576930043385e+01 -3.680904118196160368e+01 -3.593004410512351399e+01
-1.587233821849291928e+02 -1.071388925853799634e+02 5.272740335257157795e+01 1.328552597348258075e+02 -1.055385706349063497e+02 -2.660150532640218302e+01 -2.592329692973805422e+01 -3.693179251009370745e+01 -3.191522514533499688e+01 -3.143768005788619746e+01 -2.739201297464924068e+01 -2.186804654009461402e+01
-1.202939005498920295e+02 -4.726817696627597343e+01 7.348989204607110537e+01 8.424650127633120178e+01 -9.778622651438118396e+01 1.404579709011629518e+01 -8.278726066451427279e-01 -1.393182707780206542e+01 -6.784228931279297825e+00 -1.018142877303952076e+01 -4.730270003260131695e+00 -1.519306202447401111e+00
-6.298765416760916480e+01 2.212641606129722760e+01 8.448322424885540727e+01 2.157985977511399867e+01 -7.404782025183590122e+01 5.351625411324927484e+01 2.640850597889300744e+01 2.211684295034378422e+01 2.978798884230813826e+01 2.297483842129196674e+01 2.658752781115346764e+01 1.997490279304111382e+01
-2.322435574773281175e+01 6.958072836879873080e+01 9.563768687340770214e+01 -2.151946927895656358e+01 -5.931650136244418547e+01 8.329224267557074768e+01 5.858120032250788967e+01 6.996525476319158088e+01 7.369425843241771190e+01 6.216765081204506060e+01 6.171216811517414413e+01 4.684180389341001671e+01
-1.526287063728334736e+01 8.413648969619258366e+01 9.945605358825858389e+01 -3.318333230431868230e+01 -5.685927106329153702e+01 9.252055482297767242e+01 8.941687111189054349e+01 1.334518763644715023e+02 1.220899986566383433e+02 1.029596908079823550e+02 9.721251496400395808e+01 7.135907031395618105e+01
1.350787104893655766e+01 1.138635417698271226e+02 1.001814231105165192e+02 -6.437501061742192121e+01 -4.152276886025900637e+01 1.078697002595401244e+02 1.306920442425699207e+02 2.155237601676808765e+02 1.960056369400842300e+02 1.634521347158773779e+02 1.504986212157253647e+02 1.071826024108434439e+02
5.417333187183395893e+01 1.492196046789715353e+02 9.747699801651742746e+01 -1.010483285093206263e+02 -2.213830579738306881e+01 1.231054010395821194e+02 1.809341293499384165e+02 3.259650095718787384e+02 2.941426180820924401e+02 2.432919307638948396e+02 2.168197911322025391e+02 1.551281556626214240e+02
1.172739855298107727e+02 1.863409203701926344e+02 6.996560439061904901e+01 -1.499715205105389941e+02 2.304913014299921059e+01 1.266553668154357126e+02 2.376501353598512480e+02 4.620927078608297052e+02 4.109155122699552862e+02 3.380001410468258314e+02 2.895898244464567028e+02 2.053352784625877803e+02
1.927264868686842760e+02 2.066125247702061074e+02 1.516510849569154473e+01 -1.982226714249706845e+02 9.014603072691097907e+01 1.112368077580060515e+02 2.991857020867404344e+02 6.267078152916024010e+02 5.470390708117038230e+02 4.464947071018896736e+02 3.683588954709721861e+02 2.574985243189231596e+02
2.667832530538083233e+02 2.132559352717742058e+02 -5.349167621024917452e+01 -2.396350272334267117e+02 1.613399817316102087e+02 8.041248188722696000e+01 3.311787455464625509e+02 7.965786982363755442e+02 6.819505755600906696e+02 5.593993594730991390e+02 4.490769805668608683e+02 3.111968809096287032e+02
3.413515534659998707e+02 2.035870033226034366e+02 -1.370846896997172450e+02 -2.715449367686112510e+02 2.394988741537349597e+02 3.336839228222393672e+01 3.321282624447044327e+02 9.767890955847454961e+02 8.254013660147819564e+02 6.825343272227376019e+02 5.361866750208645271e+02 3.712366877347942022e+02
4.033733229368273783e+02 1.833854954880442563e+02 -2.181713014578659511e+02 -2.920085140660297611e+02 3.105411076329268667e+02 -1.705072899417280041e+01 3.138947804290557997e+02 1.136670115173189060e+03 9.485892328353119183e+02 7.960283331343904365e+02 6.172172499849270935e+02 4.270956103928899665e+02
4.623179440180371103e+02 1.669540509127673147e+02 -2.938474034855739205e+02 -3.136832161717447320e+02 3.789688943853009278e+02 -6.354309807471447158e+01 2.722812217507297419e+02 1.294676525236372299e+03 1.066717132283338515e+03 9.144659006226369229e+02 7.016210610207971285e+02 4.921445347578796259e+02
5.232411961237075957e+02 1.464102856003405861e+02 -3.768768886776426825e+02 -3.346671871306633079e+02 4.506873923991948914e+02 -1.156675711248474698e+02 2.318011331547267844e+02 1.400679543923890606e+03 1.127529556899988847e+03 9.843382262676738037e+02 7.422193692873032660e+02 5.239847973622539712e+02
5.969455679167392645e+02 1.227816156294280603e+02 -4.733471762473710100e+02 -3.587031683433363014e+02 5.357008673847736873e+02 -1.746624938808974719e+02 1.897269509321856731e+02 1.519180347814891775e+03 1.137039874623899550e+03 1.010453602669253883e+03 7.413663678105543795e+02 5.220724243120602068e+02
6.570874357767975198e+02 9.826620545262403539e+01 -5.583676797193020320e+02 -3.769979999980286607e+02 6.074442317652828933e+02 -2.296820474077109395e+02 1.365475595119587240e+02 1.541384766960898105e+03 1.085672931323882040e+03 9.756056321160227753e+02 6.932492078908680924e+02 4.873622602837118620e+02
6.961391599427784058e+02 5.492099074238431911e+01 -6.416842376658910325e+02 -3.734575117474340118e+02 6.692533799310934910e+02 -2.930591244354087621e+02 6.777199993200824224e+01 1.475617034615552029e+03 9.659232128481309019e+02 8.704591576548642706e+02 5.794810205614128336e+02 4.070775597135406656e+02
7.138696631074473089e+02 3.487187293986760039e+01 -6.766265723852745850e+02 -3.736034904848257270e+02 6.970117111252006907e+02 -3.211388540965025413e+02 -5.590769551513592894e+00 1.351555999741520964e+03 8.170769392227809931e+02 7.399754117576766248e+02 4.591376297833094782e+02 3.309784735005014795e+02
7.005879036143181793e+02 3.351076359507330693e+01 -6.645322462751655621e+02 -3.659262835573278494e+02 6.831745143149036039e+02 -3.152161647186037499e+02 -8.020920726138706414e+01 1.148221940128426695e+03 6.317575533943297614e+02 5.718839379344102554e+02 3.194092260755007828e+02 2.547015120392624965e+02
6.559629097438299823e+02 3.083570025123073677e+01 -6.233735764829547179e+02 -3.417214179563085850e+02 6.399011788726743362e+02 -2.969385437791322602e+02 -1.593914789489089685e+02 8.755351251380634494e+02 4.165974926859571497e+02 3.907572105630598003e+02 1.788781324768668242e+02 1.684557748788122353e+02
5.775119872763101512e+02 2.583753096687017958e+01 -5.501084512990602207e+02 -3.005891550774598500e+02 5.638263756008485643e+02 -2.617251445241172974e+02 -2.440349257653082589e+02 5.023801075922399946e+02 1.597388960005019101e+02 1.937326497247634620e+02 3.367289508241573515e+01 7.455429810441725635e+01
4.777250550162647755e+02 3.363386119952293196e+00 -4.737629139456453231e+02 -2.396112321384410677e+02 4.774117578688818639e+02 -2.353595335169679572e+02 -3.219361940540466094e+02 1.538820861492864083e+02 -9.194386977946959405e+01 -1.780009850275880723e+01 -1.178156939866113930e+02 -2.350155589332085881e+01
3.616122011114509860e+02 -2.881349728772974572e+01 -3.890334006038456778e+02 -1.650311064930921816e+02 3.752047796581122157e+02 -2.099234293977177401e+02 -3.986410812837222011e+02 -1.858183829728472176e+02 -3.442442935633484922e+02 -2.436879700123960788e+02 -2.709595553135479804e+02 -1.226129975092527502e+02
2.633658003245051873e+02 -5.029886689067818395e+01 -3.131329130718664260e+02 -1.049306023028529751e+02 2.883460376816879034e+02 -1.821104668512995488e+02 -4.459559865973486694e+02 -4.333918828968559751e+02 -5.252890249443793209e+02 -4.147211322903528412e+02 -3.843078161750212303e+02 -1.913675659330725978e+02
1.904618108713959543e+02 -5.652174301317368332e+01 -2.448202126121998390e+02 -6.639840536858196174e+01 2.182699005405535502e+02 -1.500732668780231620e+02 -4.654652880192372209e+02 -5.824795487669938439e+02 -6.233949095377232652e+02 -5.201592251100008752e+02 -4.434162383810694337e+02 -2.276781959527288279e+02
1.348757316090582208e+02 -4.914402087530044838e+01 -1.830025852045703800e+02 -4.365068069553952768e+01 1.596911874292055700e+02 -1.163173187151276409e+02 -4.752011943763639579e+02 -6.882136528447186947e+02 -6.803086915866458639e+02 -5.781312241467921922e+02 -4.688101662458169017e+02 -2.432725238112684849e+02
9.345366604428258483e+01 -4.142584848270965381e+01 -1.335937440037027102e+02 -2.494414687788948726e+01 1.146566259899433788e+02 -8.813758850054162508e+01 -4.814401267585686810e+02 -7.467851730496760183e+02 -6.970352541113619509e+02 -5.911796739727737986e+02 -4.651195079324879771e+02 -2.466814078660369773e+02
6.624558612292921111e+01 -3.535378768786890191e+01 -1.016573166346099981e+02 -1.387489403733639293e+01 8.485299619590915654e+01 -6.881295730169952662e+01 -4.850772701854025968e+02 -7.707135408904346150e+02 -6.931493373707606906e+02 -5.852759129835991416e+02 -4.461575614246483497e+02 -2.396511628076899001e+02
4.876001638249678649e+01 -4.291697542876853788e+01 -9.070897661190662120e+01 -1.348054394921323729e+00 7.083154599590604050e+01 -6.822537449096162732e+01 -4.811211523315495242e+02 -7.576179176109217224e+02 -6.689938365256406314e+02 -5.664785985439900742e+02 -4.210419583677096398e+02 -2.282637705072023095e+02
3.515691260209239744e+01 -5.906838044554000078e+01 -9.415340825771676236e+01 1.293698717174278023e+01 6.529430422822954938e+01 -7.681921785475479680e+01 -4.578369171582116905e+02 -7.007733337807961789e+02 -6.253187146283081574e+02 -5.352272669672113352e+02 -3.947144976272669510e+02 -2.203539199544981955e+02
2.782586734632583969e+01 -8.250416729981057529e+01 -1.089242661529295475e+02 2.941281745502315559e+01 6.852401813458880042e+01 -9.487179214855940756e+01 -4.160354795607988763e+02 -6.112405291526451947e+02 -5.611513242146648963e+02 -4.951664675919708998e+02 -3.648216157161374440e+02 -2.144665351154738744e+02
1.806362941542251477e+01 -1.055334526624792915e+02 -1.219008235858232041e+02 4.605849588374493209e+01 6.961133825790388130e+01 -1.134553289658522885e+02 -3.622716901572196662e+02 -5.100116155235789961e+02 -4.938682094048518252e+02 -4.493441751123145309e+02 -3.381830901836747785e+02 -2.110113383530413955e+02
1.152013316612937288e+01 -1.170536986532028578e+02 -1.292070858249664980e+02 5.465617781087698290e+01 7.000355004523990488e+01 -1.227114768283662727e+02 -2.981563113897747712e+02 -4.058637447727825815e+02 -4.211620068391670202e+02 -3.960295748009499448e+02 -3.093545288681394823e+02 -1.981032032392727444e+02
1.209021241394615087e+00 -1.219671009217331061e+02 -1.238506855796002242e+02 6.183852508116483904e+01 6.351007297116152728e+01 -1.232681651601709234e+02 -2.387462906772985889e+02 -3.235495153576852658e+02 -3.562973616387415063e+02 -3.450058778157180086e+02 -2.798240763456324203e+02 -1.830148560767294157e+02
-8.621151868035031640e+00 -1.172742255701739253e+02 -1.068762836340917346e+02 6.367654616717408800e+01 4.904215768079311744e+01 -1.114281665362305347e+02 -1.892345545827405715e+02 -2.632336161545244408e+02 -2.988803333627283791e+02 -2.943419782929871076e+02 -2.435944984599763075e+02 -1.585151049320284358e+02
-1.607572231702616250e+01 -9.778053617323404012e+01 -8.046504755173968704e+01 5.815556266227525839e+01 3.213381443879457322e+01 -8.885235390243990139e+01 -1.499078573628206072e+02 -2.204656248518530788e+02 -2.466554627221691760e+02 -2.460481168411939166e+02 -2.033694612266421018e+02 -1.290756476329264899e+02
-2.171878155973409363e+01 -7.038217266774559278e+01 -4.701538078849995372e+01 4.684397555011256031e+01 1.377866626028353103e+01 -5.817308870622642303e+01 -1.148582957867019729e+02 -1.859857106798812367e+02 -1.984283696140853976e+02 -1.994868432517022256e+02 -1.608163275079404286e+02 -9.753595861599453087e+01
-1.567045031068648875e+01 -4.154669950196922201e+01 -2.433642928584247045e+01 2.957980100006697910e+01 5.151410495772167586e+00 -3.380433117915954710e+01 -8.739899464409403151e+01 -1.518624353347139220e+02 -1.539858333034112547e+02 -1.525674408771182016e+02 -1.171209135992663590e+02 -6.540562813628089600e+01
4.910723811502315961e+00 -1.649817674165138826e+01 -2.078135807481361041e+01 5.495886131027399202e+00 1.433683334733652970e+01 -1.797324410524669602e+01 -6.344167240322902757e+01 -1.128591697400731988e+02 -1.115640645432282270e+02 -1.059572527117530854e+02 -7.529525723543669358e+01 -3.637518202263695599e+01
1.792040528631627794e+01 -7.133092351865807146e+00 -2.310585458933071124e+01 -4.061621831765350521e+00 2.145023430873979109e+01 -1.596237149634469965e+01 -4.248785100828917649e+01 -6.874091351981275011e+01 -7.500636333034556458e+01 -6.881208406413463763e+01 -4.614481230212802387e+01 -1.987002924342205290e+01
2.160593793888178737e+01 -1.090093650789548718e+01 -3.117270277089102848e+01 -4.586655972693712613e+00 2.592723408112340522e+01 -2.123074630633467663e+01 -2.035795274358696005e+01 -2.251344526132583823e+01 -4.379864908592930561e+01 -4.002992520080637462e+01 -2.922815873472015724e+01 -1.272972832050165692e+01
1.971641565411830399e+01 -2.050007701605812471e+01 -3.938105203320917980e+01 1.165066194568347369e+00 3.031708809356118550e+01 -3.034376250681843601e+01 -9.970582555552863768e-01 1.840287414284529532e+01 -2.117314147003589042e+01 -2.356446643608562397e+01 -2.114773110766777009e+01 -1.234872730696859122e+01
2.060468632589432048e+01 -2.436440416767932504e+01 -4.380687683811120792e+01 2.951516314559643472e+00 3.410022191349771958e+01 -3.443530220325235547e+01 1.381629581332642331e+01 4.532356892189688580e+01 -6.821984386668320077e+00 -1.423917264465825383e+01 -1.947122516277188353e+01 -1.546185201643397988e+01
1.820930863641893893e+01 -3.002073718056637830e+01 -4.744859464502977886e+01 6.680086102443425489e+00 3.370873416627603092e+01 -3.964352841659273707e+01 2.210961218399477701e+01 5.901460285992845201e+01 5.655512627378377344e-01 -1.202134790395374964e+01 -2.150654233217204592e+01 -2.027087001629392304e+01
1.705818174742833193e+01 -3.249991514176814178e+01 -4.816776353369349550e+01 7.323296870762770361e+00 3.382708540224415827e+01 -3.901889001005662294e+01 2.837923300317767428e+01 5.782265732745076292e+01 4.253185362488317800e+00 -1.269059830277959655e+01 -2.335529487783650993e+01 -2.124296125364949361e+01
1.719136788646698122e+01 -2.734634401863825204e+01 -4.524146399904162763e+01 5.759262864142848493e+00 3.169230682614102435e+01 -3.656359600680610811e+01 3.229741740219701995e+01 5.185627135905178875e+01 7.420280297938998793e+00 -1.125989286317810389e+01 -2.270843713535269970e+01 -1.808278237248017462e+01
3.031372110501962069e+01 -2.902921339562059000e+00 -3.293146050769102118e+01 -1.138937035977933299e+01 3.227300170215180231e+01 -1.819511992493195152e+01 3.457759946318492439e+01 4.644995178928713386e+01 1.269095538181916538e+01 -2.547528969247079722e+00 -1.119582808781887628e+01 -6.404444913870937839e+00
1.609750043244083173e+01 -1.952985188578722386e+01 -3.490707902476565039e+01 2.283436179002308108e+00 2.552951597676707607e+01 -2.662695138294371944e+01 3.454417798425764374e+01 4.839806268365389030e+01 1.622403682061011665e+01 4.439944715070135217e+00 -5.144930060756749413e+00 -4.483307251557178574e+00
-3.743959767864894150e+00 -4.319806572129132860e+01 -3.996894075407993796e+01 2.291857007015751790e+01 1.821714981935138766e+01 -4.222828132425890146e+01 3.323466403637875999e+01 5.171911580123556007e+01 1.792370536216157006e+01 7.960235401621676310e+00 -4.346230136560985002e+00 -7.789620086676022126e+00
-1.749208686449043881e+01 -5.782395731211397560e+01 -3.924765624085776494e+01 3.753841257336353010e+01 1.045692762870154446e+01 -4.894273479118526637e+01 3.175902468326529160e+01 5.468670648067320172e+01 1.844596959025551541e+01 7.274862174686334448e+00 -4.872627645289876241e+00 -1.013807531045284449e+01
-3.602303272858358696e+01 -8.014248443818961221e+01 -4.397806534340682560e+01 5.809417048852657928e+01 3.502312383622074421e+00 -6.205160642751452826e+01 3.046506396600826605e+01 6.207026444890833261e+01 2.042272473929472909e+01 6.382201425949571849e+00 -8.356023887575833697e+00 -1.542528936123870764e+01
-4.168730823588189338e+01 -8.552898234144224432e+01 -4.321830812967706947e+01 6.366131859681777883e+01 2.244989644378059257e-01 -6.358237576209575082e+01 3.301906964069549133e+01 6.905483344768765619e+01 2.275924739277528275e+01 5.695365095289155910e+00 -9.822470538273815777e+00 -1.561020845243080757e+01
-4.027242799590595723e+01 -8.282421843598436340e+01 -4.138057212751808578e+01 6.115724547504808584e+01 -1.285674975424030420e-01 -6.185022858294608028e+01 3.648469699272698108e+01 7.793265369952828792e+01 2.729590907818324652e+01 7.188576639262013401e+00 -9.182468768495725797e+00 -1.263486521773426219e+01
-3.038321292120031458e+01 -6.887426464136791537e+01 -3.764737202020994289e+01 4.944843829568107196e+01 2.056152150913258758e+00 -5.251701819518561365e+01 4.198755796277643526e+01 8.447697874321472966e+01 3.354838819678873563e+01 1.149768631915137007e+01 -4.084236989356799796e+00 -6.516241652154985076e+00
-1.533211291433175028e+01 -5.119050767983787154e+01 -3.462893171593395891e+01 3.279086587680473031e+01 8.852254698415073619e+00 -4.269484843316460854e+01 4.865975951256039878e+01 9.218410168291646301e+01 4.095224857432651078e+01 1.964742833925209453e+01 2.646277023041518461e+00 2.587776729109775964e+00
1.963327841563301090e+00 -2.869921010242629933e+01 -3.053557209623902224e+01 1.195672415591602089e+01 1.611721114073452199e+01 -2.848367673934460598e+01 5.593931216609367851e+01 9.773283213431218996e+01 4.805893101195482586e+01 2.763888500595133024e+01 1.088203484481320693e+01 1.298713101778515622e+01
2.212109179303624629e+01 -6.748704940677897390e+00 -2.818488081617521956e+01 -7.649857905110019729e+00 2.524974069034091073e+01 -1.728976294100992561e+01 6.201260215789811525e+01 1.055018618771243553e+02 5.737729798489129251e+01 3.869515639706908416e+01 2.087182829851108323e+01 2.262678274783590382e+01
4.283990745050736138e+01 1.599240916790524913e+01 -2.631619618386394066e+01 -3.052307287003933567e+01 3.446266468398422944e+01 -4.848661678651251528e+00 6.872498534674160453e+01 1.136971159970010063e+02 6.529052554883865866e+01 4.865312220317566982e+01 3.022057219426342911e+01 3.303046196695656533e+01
6.153927746382191799e+01 3.424273567716740274e+01 -2.761089038891303460e+01 -4.892657662644357686e+01 4.472422433662102037e+01 3.862811444285488172e+00 7.524976270718636329e+01 1.246308280404035145e+02 7.367666538729520198e+01 5.904000533304625975e+01 3.855649188951550599e+01 4.155833171011398974e+01
7.597292473968197157e+01 4.931508967370798047e+01 -2.632320100450150946e+01 -6.280854851854608256e+01 5.093130004833881230e+01 1.198276773907814174e+01 8.043817109216240624e+01 1.342046005111458271e+02 8.015313382786919760e+01 6.751198486690144307e+01 4.539016936428810567e+01 4.843059575302175546e+01
8.393087876456233687e+01 5.612728870645832302e+01 -2.873906295329213023e+01 -7.116236888219756906e+01 5.690711910617966396e+01 1.421060717992239475e+01 8.485372534626596064e+01 1.425729545691339410e+02 8.552429538294002498e+01 7.442515363121908933e+01 4.926639722363172780e+01 5.219682593577615393e+01
8.924145875734909339e+01 6.019092043973866879e+01 -2.936284868998458819e+01 -7.488864530303249012e+01 5.925529988813006099e+01 1.564743384221537958e+01 8.809354288228135488e+01 1.493637180794352162e+02 8.980989912575864764e+01 7.872996437097634725e+01 5.136882580287468159e+01 5.449705227596987100e+01
9.015974751307102508e+01 5.859822468260944817e+01 -3.152128512331106691e+01 -7.498067658122820944e+01 6.164468529520537032e+01 1.334251909793950119e+01 9.049076479734307554e+01 1.527762114154060669e+02 9.257540301256186410e+01 8.179414158665437640e+01 5.286766867457900787e+01 5.520962122416745643e+01
8.998069512804755732e+01 5.627684347269042320e+01 -3.316853075758410796e+01 -7.405839590983340770e+01 6.195451121864578425e+01 1.208055898456831478e+01 9.175172709849489650e+01 1.535256719221124229e+02 9.419600016942672482e+01 8.188614955643427606e+01 5.299340287648402636e+01 5.439029724570031732e+01
8.910227907208431475e+01 5.271901435533147406e+01 -3.504813295557839581e+01 -7.081397526238895068e+01 6.221294585736441007e+01 8.640101451226247065e+00 9.211686250911795071e+01 1.543385982887334649e+02 9.599055898435599943e+01 8.223250454918202479e+01 5.302970381868951932e+01 5.273995801387825111e+01
8.517359514854240388e+01 5.020499443737430312e+01 -3.487707671887974925e+01 -6.815116600582844342e+01 6.078054047654624270e+01 7.314958672460343259e+00 9.186236353313164216e+01 1.536031484114663499e+02 9.629711922046269024e+01 8.116832007322935283e+01 5.294259255157167132e+01 5.106194280848156808e+01
8.251537010007884021e+01 4.763974248182695703e+01 -3.422759777250347213e+01 -6.524119431556685811e+01 5.810429726485129720e+01 7.212121290799364814e+00 9.260936535018714721e+01 1.553465563639973368e+02 9.900680035800509415e+01 8.146302638047869493e+01 5.347889276878402143e+01 5.106487051292690893e+01
8.112650193682259214e+01 4.989045799818343596e+01 -3.012399456006903975e+01 -6.544324003650105226e+01 5.529583664351588368e+01 1.004601482536682688e+01 9.414649121588236369e+01 1.581600779899447673e+02 1.024000938012563182e+02 8.376761451179363860e+01 5.580225613695670006e+01 5.129809647058664979e+01
8.196472331578763715e+01 5.398169075154601870e+01 -2.703007382495292532e+01 -6.826707646385841599e+01 5.500290336924280865e+01 1.340741271540368196e+01 9.701614178218672180e+01 1.641736499528448689e+02 1.074224549511799864e+02 8.766087814398461830e+01 5.959661173986069826e+01 5.409459636217661682e+01
8.558078982457824679e+01 6.013285476944580665e+01 -2.444654026570388439e+01 -7.352108291361722081e+01 5.537438946185292110e+01 1.791016891511712572e+01 9.991873672390018157e+01 1.696664797564712330e+02 1.121944934582392079e+02 9.212556732986485031e+01 6.423832071938667809e+01 5.625906085258361600e+01
8.978264146174097959e+01 6.548260385994201727e+01 -2.322462249400986067e+01 -7.766828878166940342e+01 5.749756178561097641e+01 2.102139423676732477e+01 1.031662167835995660e+02 1.769334250539820630e+02 1.174814828080032925e+02 9.752918545180000365e+01 6.893219375259822357e+01 5.904838264935887793e+01
9.259601414896339122e+01 6.828171155802003511e+01 -2.394606718942904422e+01 -8.079073298641391432e+01 5.862073016525189928e+01 2.259717464032174661e+01 1.048314282399550876e+02 1.822676390128262085e+02 1.216984690570893690e+02 1.016423677700577599e+02 7.188232923489015036e+01 6.086515773080385827e+01
9.319420294154795670e+01 6.679713683639268140e+01 -2.655306106819553236e+01 -8.048267603609291143e+01 5.973870291897217299e+01 2.007234564717676406e+01 1.051227257352542352e+02 1.875309942702547517e+02 1.251086576095830054e+02 1.052137815151414202e+02 7.519340847261683791e+01 6.158443842673365509e+01
9.192530906552623549e+01 6.316672394398176493e+01 -2.864960521060407572e+01 -7.837102581683184610e+01 6.061730209679113557e+01 1.645900814863151496e+01 1.043393619911377783e+02 1.910299205171875769e+02 1.279272617684575124e+02 1.073202503035670929e+02 7.677988547858160473e+01 6.221546523896093106e+01
8.856783308705651336e+01 5.682486753686229974e+01 -3.183185341311503791e+01 -7.373545664645072861e+01 6.083758981350464978e+01 1.282830244025659994e+01 1.038674881658309630e+02 1.940539783741334645e+02 1.305126919367777987e+02 1.088445097070570569e+02 7.758614218122490058e+01 6.181464055978951677e+01
8.365028112933242710e+01 5.164148744719825146e+01 -3.193065601386022934e+01 -6.868216488655917829e+01 5.786692080275903294e+01 1.003496968954206103e+01 1.040959980484753942e+02 1.963496242500249593e+02 1.321818844846490038e+02 1.094991558187717402e+02 7.874057503849145689e+01 6.220352556598125204e+01
7.969995265966032605e+01 4.818258648776644293e+01 -3.158933254425632953e+01 -6.458193590385936034e+01 5.571173334379709985e+01 8.531955814555667317e+00 1.038888342042223201e+02 1.987193372967405196e+02 1.343400859719455696e+02 1.107811237826393267e+02 7.947945206129449502e+01 6.169404031888583262e+01
7.822299354483513412e+01 4.797781900425535184e+01 -3.017648763830167624e+01 -6.386815730575433747e+01 5.402163986227637338e+01 9.314740252847943935e+00 1.045450916938238350e+02 2.031303972288138766e+02 1.372404704122539840e+02 1.119437123256474109e+02 8.182262869284937779e+01 6.331674643472482700e+01
7.829154684596869629e+01 4.901097793786939150e+01 -2.934835533883245873e+01 -6.449354682743629041e+01 5.459383122698476143e+01 9.230278825122637087e+00 1.062225016916458600e+02 2.087449877466852399e+02 1.423588220848911590e+02 1.155652116752502394e+02 8.499190031120707545e+01 6.513111538572694315e+01
8.099087199835497586e+01 5.108649355621900412e+01 -2.983480351167097311e+01 -6.631368882456449398e+01 5.613024210707546757e+01 1.063799769580192667e+01 1.083737213440459470e+02 2.161020838612803061e+02 1.476661750193883336e+02 1.201031098924794094e+02 8.843959740982366213e+01 6.851570718792534365e+01
8.339309992380088943e+01 5.085327875797496944e+01 -3.261551359471636147e+01 -6.786849668663185753e+01 5.847370623752384233e+01 8.433848769886383323e+00 1.102229073809542541e+02 2.237612111984275316e+02 1.540925007163349392e+02 1.253821789214775038e+02 9.272058704755713165e+01 7.217891258125908394e+01
8.489738866601516065e+01 5.027014226839162347e+01 -3.453536183472964893e+01 -6.751723753355723545e+01 6.014252406530987827e+01 7.031524774540338640e+00 1.124349015201234181e+02 2.304848107414332219e+02 1.598237067854977624e+02 1.301825552367625107e+02 9.654600310595255053e+01 7.431489690746190035e+01
8.435917371350944904e+01 4.659136077311251256e+01 -3.791346048459801921e+01 -6.619818140264787587e+01 6.205364819146635114e+01 4.268436008462356490e+00 1.136403358711715867e+02 2.366414888084983090e+02 1.649993880186148090e+02 1.348114208294352068e+02 1.001628355731894970e+02 7.626290871948143035e+01
8.433789490516002729e+01 4.589676678286453892e+01 -3.778639356237955127e+01 -6.590840137791272468e+01 6.171948082787643841e+01 4.084268686837499551e+00 1.151568206011708497e+02 2.408581207584202843e+02 1.682487995159335981e+02 1.384609949151104047e+02 1.027564738357918372e+02 7.840008707438360602e+01
8.629993327757433974e+01 4.688418916504346612e+01 -3.822723500109017181e+01 -6.692214026707662811e+01 6.282470530119439900e+01 4.234020861399461211e+00 1.174120651804632587e+02 2.470807473255150626e+02 1.729158014660076219e+02 1.421916777160795959e+02 1.061215469490226013e+02 7.965304445509116249e+01
8.875756760966601178e+01 5.059354388451080098e+01 -3.783217709961495956e+01 -7.058958046019610322e+01 6.332733969457279244e+01 7.020811739663764151e+00 1.191210679457293793e+02 2.525999848372726717e+02 1.762176394460315692e+02 1.451674713054414383e+02 1.087447125010152433e+02 8.115225757457878331e+01
9.211751846499502960e+01 5.461579351574749097e+01 -3.763523901259330273e+01 -7.411738955614478641e+01 6.560193120052808524e+01 9.406762444398138356e+00 1.219809566184096496e+02 2.596196846267937417e+02 1.814009841528512936e+02 1.500242011721208826e+02 1.121455584562553867e+02 8.340179091386168864e+01
9.397182774111597325e+01 5.724792649441213399e+01 -3.661866140582947082e+01 -7.593199329960317812e+01 6.552067697602403484e+01 1.026220015079391601e+01 1.243608578565053193e+02 2.663499825121077151e+02 1.860417791544124100e+02 1.525802949049073334e+02 1.146660054596817275e+02 8.477953278550954508e+01
9.259023405877988466e+01 5.578222750206899150e+01 -3.691349965321263227e+01 -7.515727182033710108e+01 6.392859387868131193e+01 9.816583013319206685e+00 1.263010383098434204e+02 2.736621941289483289e+02 1.909370519113350042e+02 1.568813378318704395e+02 1.183225409776623422e+02 8.502882191292816572e+01
8.731746827775873498e+01 5.281799444391003817e+01 -3.437469551011987789e+01 -7.048669228983322910e+01 6.056845320271141020e+01 9.728708497396620913e+00 1.277510646811516040e+02 2.802770595544606067e+02 1.941646442919514470e+02 1.592206653829339871e+02 1.194696821779289593e+02 8.504396104588252570e+01
8.088150594942302973e+01 4.797158909200410193e+01 -3.309887835029595493e+01 -6.421420800501738313e+01 5.631395984879497263e+01 7.929247203585974901e+00 1.289754202603106705e+02 2.880801886395298084e+02 1.994114825388724341e+02 1.618570318323583024e+02 1.218380221486102926e+02 8.482632830899703436e+01
7.726297722177096716e+01 4.628270719161364610e+01 -3.027060027235809159e+01 -6.220021200853445720e+01 5.342048826371163983e+01 8.744648798706256443e+00 1.320323460694894209e+02 2.969839948527861679e+02 2.042937886163778671e+02 1.653381033434767176e+02 1.248563131803820454e+02 8.615874039420516795e+01
7.685756860546719338e+01 4.575904480782114803e+01 -3.003906276526686625e+01 -6.177372543546951533e+01 5.278996004748840676e+01 9.061151917174552040e+00 1.346951361402199439e+02 3.081970122003127130e+02 2.123330640320565692e+02 1.701911320917520811e+02 1.284419448804662807e+02 8.822484076658965080e+01
7.853264462662239964e+01 4.677198370210970069e+01 -3.076883551161132146e+01 -6.323635425245485209e+01 5.453822177987701991e+01 8.518225079962691737e+00 1.386941527573171982e+02 3.187486649037901429e+02 2.192889700340597585e+02 1.755695967768371588e+02 1.330476997026333379e+02 9.095324050703716523e+01
8.153141076140497034e+01 4.631874131053442767e+01 -3.423083183233398330e+01 -6.407223728034328758e+01 5.792627356344939216e+01 6.926863179845828000e+00 1.414142452767480904e+02 3.303324248193371773e+02 2.267498684140803391e+02 1.821316179781339599e+02 1.380019450913272578e+02 9.245140401169115307e+01
7.805895899252440984e+01 4.087924418077444244e+01 -3.613914168562380524e+01 -5.945453755011216401e+01 5.680595020156884800e+01 3.088408075042996082e+00 1.431993782041886334e+02 3.396522367993653120e+02 2.321881758291810911e+02 1.865457123627090539e+02 1.396378542145925508e+02 9.120721528862787864e+01
7.306171407245146554e+01 3.448151574688659338e+01 -3.765105389800641689e+01 -5.372155529937374752e+01 5.477157542262661849e+01 -1.131756259119151231e+00 1.456198615275963562e+02 3.491950000774142495e+02 2.371505127107839144e+02 1.905962234977962737e+02 1.412289483257728477e+02 9.083207673724797360e+01
7.184954061983518159e+01 3.569070222887361155e+01 -3.501846732174388421e+01 -5.410283429346685580e+01 5.298138958796368314e+01 6.064441197648661186e-01 1.505149833380805546e+02 3.602151684879240747e+02 2.429688201435301664e+02 1.943589899921107076e+02 1.430753855702385238e+02 9.249563737910210648e+01
7.752391743102965904e+01 4.488989832016709158e+01 -3.228615261898606548e+01 -6.170419264903775769e+01 5.439197642640171892e+01 6.125141161901732190e+00 1.573139234723682591e+02 3.737363317038980881e+02 2.516622473483397471e+02 1.998389200126709682e+02 1.471760030699014408e+02 9.691251582937317721e+01
9.299635013815972684e+01 6.421590465485101618e+01 -2.889376200147808049e+01 -7.944184923533599374e+01 6.039843375980076701e+01 1.808230290767233228e+01 1.654198939395984382e+02 3.882960969949572245e+02 2.614325750813135869e+02 2.101326903945976028e+02 1.555836979628240329e+02 1.041919594271103904e+02
1.147317764764160870e+02 8.794650473685661041e+01 -2.671019761057511133e+01 -1.018895693326521581e+02 7.057349522364116012e+01 3.086843520516406514e+01 1.744827931212166732e+02 4.031795185237583041e+02 2.739182251115707345e+02 2.228740672737599482e+02 1.647064673167931232e+02 1.136450157647960424e+02
1.321072658128286150e+02 1.065464994204684359e+02 -2.566038319849547378e+01 -1.189925829769003940e+02 7.861866262355160018e+01 4.008432213787163079e+01 1.802834055368734028e+02 4.151419360345403788e+02 2.838015129296373971e+02 2.333833389188253022e+02 1.731932312769834539e+02 1.191751036735369382e+02
1.433332735387149341e+02 1.165235774400510280e+02 -2.625441266347425895e+01 -1.304988307078766354e+02 8.446640258120484646e+01 4.455445491770000643e+01 1.846045431048156331e+02 4.247790355131067486e+02 2.917488631178281366e+02 2.423178110300112849e+02 1.800230960269874743e+02 1.232914785443450825e+02
1.485906600135209885e+02 1.211183971263404260e+02 -2.617003712506815560e+01 -1.349070758160395656e+02 8.752509306003646827e+01 4.728888459280763357e+01 1.883740614618550353e+02 4.335726556040575019e+02 2.971464410642585676e+02 2.489657151019509911e+02 1.846841133194349993e+02 1.250591033074502860e+02
1.477013582026379765e+02 1.190697074718368640e+02 -2.845820783875124604e+01 -1.337098692174077712e+02 8.821242159007458383e+01 4.538061031346472163e+01 1.926973131887195620e+02 4.417848859040178695e+02 3.017402048013659623e+02 2.532026925825969386e+02 1.875259876223492768e+02 1.271160343419928154e+02
1.428022628961253133e+02 1.118331183971893097e+02 -3.041516272988108582e+01 -1.278675428613350107e+02 8.737592138528806629e+01 4.064497676557729733e+01 1.953942524763496067e+02 4.475295846280789647e+02 3.048276308080846206e+02 2.556422958169164303e+02 1.884918681370177183e+02 1.262043528983877536e+02
1.383649386841008209e+02 1.027877850083479956e+02 -3.441744287355150789e+01 -1.208317033958264943e+02 8.638110128435545221e+01 3.427164948148474366e+01 1.971095438974884075e+02 4.539754017485883537e+02 3.075142119545742503e+02 2.586697823166585977e+02 1.902800759515360767e+02 1.260582265783917677e+02
1.357711661336448685e+02 9.986435691815651694e+01 -3.499949305730147842e+01 -1.176244707765501403e+02 8.575595972914409515e+01 3.210644502844570525e+01 1.997918412108612358e+02 4.589969196131822855e+02 3.088918615219881758e+02 2.593408226627584554e+02 1.916533455023158297e+02 1.261978831834963586e+02
1.386145547337488892e+02 1.028465909430633332e+02 -3.470702926986835024e+01 -1.211762020417545500e+02 8.696119420248206211e+01 3.349800127125323712e+01 2.028759393987007229e+02 4.645598686055093935e+02 3.124412343202828879e+02 2.617147987202881723e+02 1.933889067382304745e+02 1.293091010834323527e+02
1.504686510430576902e+02 1.168983651916893365e+02 -3.260885986575080864e+01 -1.340800859331393440e+02 9.109103392808073352e+01 4.190116685314496436e+01 2.061954790424457826e+02 4.717201770313422458e+02 3.168062475943568757e+02 2.657654730966223156e+02 1.985380958924159529e+02 1.342893639017302974e+02
1.676965065667450006e+02 1.357036161602480036e+02 -3.097970580647404049e+01 -1.524218734840472109e+02 9.916318970423466794e+01 5.276051963979492854e+01 2.112387466631098789e+02 4.796821259031323166e+02 3.228464908788364482e+02 2.717664395660212335e+02 2.048291903720986227e+02 1.420322140134499307e+02
1.834837353283451762e+02 1.539356751847594751e+02 -2.850364042367148798e+01 -1.684088477648627702e+02 1.057734074960314388e+02 6.298523229247289379e+01 2.149867415534630481e+02 4.855570378958252036e+02 3.277181462768968458e+02 2.776690069384058006e+02 2.101442502352653321e+02 1.489309173732814600e+02
1.963663825891055410e+02 1.684008845782145727e+02 -2.747593453538233632e+01 -1.824666659111503293e+02 1.113226473133131549e+02 7.029088717290346722e+01 2.178409009797128988e+02 4.914630219127197392e+02 3.303702864632108458e+02 2.828662090965740390e+02 2.146678443446553786e+02 1.536985254779479817e+02
2.046140812863589247e+02 1.786169930345556054e+02 -2.630665850185931376e+01 -1.919634761246952621e+02 1.149471860716144960e+02 7.657465487043793928e+01 2.199950079517476524e+02 4.948590720573389490e+02 3.321995094713531103e+02 2.856784202707706299e+02 2.174110380648655507e+02 1.568051504869512200e+02
2.097587445322175768e+02 1.839427475538186627e+02 -2.505050269256317463e+01 -1.969228822578608629e+02 1.174515089513910340e+02 7.965571052466768265e+01 2.198395677440887539e+02 4.974516244125235289e+02 3.334070925418653815e+02 2.886609968458055278e+02 2.187094231294749989e+02 1.595588274311207613e+02
2.128063469934001830e+02 1.893316852550868532e+02 -2.253753672830728760e+01 -2.018640100591513260e+02 1.181216056422459957e+02 8.353023346928004855e+01 2.202482106487648252e+02 4.986544047921048559e+02 3.322374386361241818e+02 2.889350688812958765e+02 2.190827368450114250e+02 1.600192529917441391e+02
2.154631816753223177e+02 1.928357531148301973e+02 -2.101875934408177926e+01 -2.041198550951617676e+02 1.179754514288721197e+02 8.689154200167696729e+01 2.192318946236323143e+02 4.987617845509705035e+02 3.315402902656644528e+02 2.891529421121203427e+02 2.189783321286676028e+02 1.600841345287099102e+02
2.162930227549778408e+02 1.959948463195923125e+02 -1.855949610272319106e+01 -2.065518522889454118e+02 1.176263585002502623e+02 8.940435661680433554e+01 2.191309643389539019e+02 4.966934582926906501e+02 3.302915538981328609e+02 2.884496509685883439e+02 2.186336781477201612e+02 1.595033591002042215e+02
2.144473440907200370e+02 1.974502916112465414e+02 -1.698743913416758033e+01 -2.061532819789521511e+02 1.157536206621897747e+02 9.067937766823726520e+01 2.179290064331536314e+02 4.944885355034779764e+02 3.290629744775025642e+02 2.869370606321372179e+02 2.167465298539967193e+02 1.579003620354696409e+02
2.110877632182197203e+02 1.954191988867916052e+02 -1.496168209027485041e+01 -2.032354930525541477e+02 1.139053915248136946e+02 9.075894987446177709e+01 2.158289953626047861e+02 4.905721848174235333e+02 3.265696898786196698e+02 2.847039608258025964e+02 2.149017733556722760e+02 1.557183461611860764e+02
2.074676044155243062e+02 1.916367991025223887e+02 -1.526525696695210144e+01 -1.992826409412062389e+02 1.112228426386469380e+02 8.865553888169182528e+01 2.129021832609423655e+02 4.857745691578190304e+02 3.246705744527324669e+02 2.824747360545329684e+02 2.122666748393735077e+02 1.534960988408633114e+02
2.010904058436458683e+02 1.871226628264990666e+02 -1.429820501174183534e+01 -1.937277863500679587e+02 1.082452083417939264e+02 8.696739209046080532e+01 2.079524974405991031e+02 4.790435453790485667e+02 3.198983873261745998e+02 2.785806194614323772e+02 2.088050303630843985e+02 1.494786038787335940e+02
1.964940513894456160e+02 1.822147472714014782e+02 -1.349488474692004658e+01 -1.896361217956509790e+02 1.050103896119435376e+02 8.457385078781003074e+01 2.030120248363334383e+02 4.737392572237384911e+02 3.151520730232018082e+02 2.741608668408150606e+02 2.039062934980997852e+02 1.457635639037322619e+02
1.930486198550365202e+02 1.797991001978554380e+02 -1.271563782329989856e+01 -1.858632340928680833e+02 1.032928498112019184e+02 8.345043882329797214e+01 1.980322803119871082e+02 4.670275566205971813e+02 3.097918249060306266e+02 2.692837065640285914e+02 1.996127594715237024e+02 1.413587367163832766e+02
1.906619213351178246e+02 1.777072955746585876e+02 -1.323286941086323942e+01 -1.843722294458151225e+02 1.023035510551581098e+02 8.231709756507449072e+01 1.928566530849691674e+02 4.618690123087104666e+02 3.056222840777604119e+02 2.658891866338066734e+02 1.950720922679386433e+02 1.383072306645208869e+02
1.897668884732993035e+02 1.763232365757093305e+02 -1.313012717943561469e+01 -1.833174292525654323e+02 1.024497842684321540e+02 8.149085581016557001e+01 1.890665133088760399e+02 4.544401632699325546e+02 3.016240991956928497e+02 2.613204680848037356e+02 1.904305640411244553e+02 1.349955259502401077e+02
1.901546456868468908e+02 1.754925103022717110e+02 -1.549663017406142274e+01 -1.829570252385037747e+02 1.031646813060735894e+02 8.034724606352827436e+01 1.858299648548088783e+02 4.487854762481432545e+02 2.971342228404899970e+02 2.579646033532814613e+02 1.867309621416343930e+02 1.328971035974616370e+02
1.899078596885895820e+02 1.738995150471887712e+02 -1.643617306213108620e+01 -1.826349449161939162e+02 1.033820778908826696e+02 7.906749729854811903e+01 1.818267769983947346e+02 4.411326178970557521e+02 2.924073765670137846e+02 2.528035847376613390e+02 1.825377662344149314e+02 1.305923347369082421e+02
1.897016950429068913e+02 1.718012634055401406e+02 -1.780815962697717225e+01 -1.807950315441702003e+02 1.043081639322580401e+02 7.652921886588221412e+01 1.800107952541063128e+02 4.335733973269370267e+02 2.883718459235437876e+02 2.487152282406601671e+02 1.786825202246926381e+02 1.295471371585328484e+02
1.877510132942164205e+02 1.693946239102663185e+02 -1.833900838832700586e+01 -1.789017159945343280e+02 1.037940011922069203e+02 7.554691699205064026e+01 1.771860043041451434e+02 4.240245389943306691e+02 2.827732042874418426e+02 2.444718148926847334e+02 1.746041333771626682e+02 1.277282404451794520e+02
1.858983613039823979e+02 1.661284942072322508e+02 -1.991256081258759636e+01 -1.762998500922712424e+02 1.038097573516314753e+02 7.382878933124861476e+01 1.743086666707460779e+02 4.143415493415677702e+02 2.779417248367784055e+02 2.408662979861504425e+02 1.705921830070672343e+02 1.264378926384532917e+02
1.834516620304461867e+02 1.629263199942232632e+02 -1.982788260144047143e+01 -1.732387990142308070e+02 1.016405648124329986e+02 7.184538316076692865e+01 1.711137166375912955e+02 4.029613720034971038e+02 2.705420140215106244e+02 2.359707567337726459e+02 1.671459393670608620e+02 1.248867547113156320e+02
1.791440286067351906e+02 1.583312004138882685e+02 -2.027238820439045952e+01 -1.698026834223747699e+02 1.000556270336384586e+02 6.979990896265456968e+01 1.684185644947603748e+02 3.910112618183152335e+02 2.646815298002204599e+02 2.312230650843225988e+02 1.638681192609203379e+02 1.228503034407174113e+02
1.745246752168122839e+02 1.554195181504624088e+02 -1.927778419147668032e+01 -1.655292303062505539e+02 9.718922754235461525e+01 6.779936286051410832e+01 1.645847756324773741e+02 3.787897742932059941e+02 2.578105169922152982e+02 2.254699459353575151e+02 1.594719091998273370e+02 1.206961181233694589e+02
1.702366724876303863e+02 1.515730140108691728e+02 -1.865802375298053306e+01 -1.617660909946836512e+02 9.431246790914237010e+01 6.627056006203703475e+01 1.611956241936989898e+02 3.672303205675785875e+02 2.510153787543712269e+02 2.195252373969028099e+02 1.558224211362778533e+02 1.194390828450084427e+02
1.654366208847073096e+02 1.481882487117350991e+02 -1.669415654353632661e+01 -1.575383938132199262e+02 9.117715221848982310e+01 6.549728386411560166e+01 1.578825142708290912e+02 3.541941101769958209e+02 2.437751473970208167e+02 2.134361907001908207e+02 1.514764348375717304e+02 1.179174175615487457e+02
1.613867059164117279e+02 1.452755726139189392e+02 -1.542802673608849950e+01 -1.538251033403522854e+02 8.829188521154976854e+01 6.440912591571313328e+01 1.530788666062055654e+02 3.421710162595501856e+02 2.370195571176901694e+02 2.075357014743394188e+02 1.479049295581473871e+02 1.158414037938373440e+02
1.559287499078261305e+02 1.419101669876007463e+02 -1.431556961913742754e+01 -1.491242125906667013e+02 8.526924269447721372e+01 6.297996374542413633e+01 1.481408688890598171e+02 3.289275261332810487e+02 2.298983601334418267e+02 2.015141930515735567e+02 1.429875933006634909e+02 1.134351796815501814e+02
1.504503833179536798e+02 1.367325501669060657e+02 -1.391750211957676520e+01 -1.437691324393436219e+02 8.180673560713492520e+01 6.082868219363839302e+01 1.426491725950032787e+02 3.149342153693504542e+02 2.221501113122036202e+02 1.950781007546831063e+02 1.383363002048120336e+02 1.097231090152427555e+02
1.421335027487520222e+02 1.296000698736647223e+02 -1.410700600553654738e+01 -1.365207641992386414e+02 7.764488199903230736e+01 5.802584867296096860e+01 1.363567778998159099e+02 3.003226649210090500e+02 2.124519901572111280e+02 1.878764953155267676e+02 1.319841733460430362e+02 1.056579251752373949e+02
1.342440751530705541e+02 1.207862645514360338e+02 -1.344280192614706593e+01 -1.278733687244383788e+02 7.327968110032482230e+01 5.341681743700457474e+01 1.311171348461933519e+02 2.854088049607777862e+02 2.041247802132652964e+02 1.805782540666779141e+02 1.254036250013676153e+02 1.013792424145762965e+02
1.239504399606927763e+02 1.117735667583009587e+02 -1.288351860614469224e+01 -1.187212964826621544e+02 6.801393465108344571e+01 4.993177085834488338e+01 1.256502634822100930e+02 2.697508058002804887e+02 1.940872891379154339e+02 1.722475569236492561e+02 1.192495266168198782e+02 9.539585442269481064e+01
1.148727008503398253e+02 1.032247090599616541e+02 -1.266010761240011462e+01 -1.098670454667281859e+02 6.311250276331603004e+01 4.542416795211352110e+01 1.197851716101184820e+02 2.542257803695613063e+02 1.843402687528375452e+02 1.641138064457457233e+02 1.112813877898627624e+02 9.016675965169203266e+01
1.061049852035514363e+02 9.549801449482455951e+01 -1.125981647901446081e+01 -1.010781750288747673e+02 5.860801153619240011e+01 4.234167072013065791e+01 1.158741226329175333e+02 2.394184754722014929e+02 1.745542724782355037e+02 1.545048176470236285e+02 1.039122304115790030e+02 8.457429844819370146e+01
9.867548224123807188e+01 8.763898193086801314e+01 -1.053848934548410021e+01 -9.415211240036745721e+01 5.428093670129398873e+01 3.919686757642874397e+01 1.110316864806982835e+02 2.243624669015477764e+02 1.656903917541577869e+02 1.465552431042133037e+02 9.698766394353386033e+01 7.897969652582607125e+01
9.013711877444299603e+01 8.173637165801741844e+01 -9.393648378332835946e+00 -8.632894875984611360e+01 4.948489911911954664e+01 3.631174087107743986e+01 1.067444646819288891e+02 2.093781250059552690e+02 1.548119926562840476e+02 1.378620255794147340e+02 9.001022367591134810e+01 7.421858026631863936e+01
8.272045330042234923e+01 7.493782810181539844e+01 -8.024129710543897787e+00 -7.897557429293452458e+01 4.547218123895002151e+01 3.366127601884146259e+01 1.021513535203635286e+02 1.947841125815697296e+02 1.461679192459246224e+02 1.288159881368448794e+02 8.291093612864965223e+01 6.907791457236670851e+01
7.407426829955882397e+01 6.846152206347605329e+01 -5.816767619344288320e+00 -7.190120801253243599e+01 3.988218137565968391e+01 3.196140816865087331e+01 9.765526630961808507e+01 1.815891806607668286e+02 1.360871156292928674e+02 1.202952243476691763e+02 7.649853924613768186e+01 6.420248283509005205e+01
6.722215231057931817e+01 6.299497926377283363e+01 -3.412204817424993486e+00 -6.556135891050966791e+01 3.538709565392984047e+01 3.017462599264085199e+01 9.327044267413538137e+01 1.684687204268756773e+02 1.269013680823075703e+02 1.124901074215978696e+02 7.057307782163807985e+01 5.906627379975034842e+01
5.967962044281222234e+01 5.864519175690774944e+01 -6.897395122794722777e-01 -5.946533085770869320e+01 2.991379349288949996e+01 2.959878031005478860e+01 8.851237131728531438e+01 1.565174278921083442e+02 1.181870386856227100e+02 1.048217914040000664e+02 6.497723046111403278e+01 5.459312511154385561e+01
5.413799855590815469e+01 5.513822435664684463e+01 1.479713725656906398e+00 -5.449503823450874052e+01 2.573083675940461035e+01 2.866208561798298859e+01 8.482569080116819293e+01 1.458941392701192115e+02 1.106892392557731739e+02 9.813706618994808650e+01 6.062640568797640128e+01 5.116875336122720341e+01
4.941835180296348540e+01 5.274449229857477661e+01 4.426513234326408863e+00 -5.119306916712676525e+01 2.208304933841252549e+01 2.930833028489820791e+01 8.106400307282549988e+01 1.349557719489305043e+02 1.025681151426849311e+02 9.131054989859782722e+01 5.722659457968536145e+01 4.879444715322519954e+01
4.675415299763520238e+01 5.168719223576895416e+01 6.013994374931671771e+00 -4.910422309884190639e+01 1.977416803706575976e+01 2.865838531902912223e+01 7.845903334037548404e+01 1.264582655530004587e+02 9.688966958660115836e+01 8.617870339598451324e+01 5.428930286409545403e+01 4.688544709624909501e+01
4.559531413408164724e+01 5.260606517806855464e+01 7.416503293921016038e+00 -4.940628815847495758e+01 1.870867345719052466e+01 2.972428162931466389e+01 7.550823878090602648e+01 1.184276458426568723e+02 9.024519415225886121e+01 8.156738791960589197e+01 5.173872694521293880e+01 4.519922419096531030e+01
4.705824596303692431e+01 5.382488219022764042e+01 6.750382545948063751e+00 -5.103248715311723060e+01 1.948016806550307933e+01 3.035378367787761533e+01 7.458654008374912792e+01 1.109052460529521653e+02 8.542189810927591509e+01 7.782948913003944824e+01 4.991447606609172283e+01 4.501927220200761326e+01
4.981071114268571876e+01 5.679392949508389421e+01 6.768052034372966652e+00 -5.350970413633518064e+01 2.146132972774956471e+01 3.180780395237391645e+01 7.322119845300525753e+01 1.045845471403111588e+02 7.983778636887103630e+01 7.409722985717267818e+01 4.823746322926525210e+01 4.494916853046039762e+01
5.506566703727934708e+01 5.947825636217881140e+01 5.593123092378931460e+00 -5.722323183829320925e+01 2.438718141369948711e+01 3.223984452486513419e+01 7.304675372491114160e+01 9.860122319856085937e+01 7.602244656451138383e+01 7.142419437123490411e+01 4.759282125791667539e+01 4.506894583480487171e+01
5.909007720835601418e+01 6.331257169514372407e+01 5.975423345023563648e+00 -6.118808403865983792e+01 2.632959134201174223e+01 3.431839132272477144e+01 7.289823258323364996e+01 9.312075481789445064e+01 7.101778549540142649e+01 6.866792333325547304e+01 4.630495892706523620e+01 4.490702983890832911e+01
6.352411201046684397e+01 6.674974921356613322e+01 3.931296729711365234e+00 -6.538159618807294748e+01 2.962647149292807569e+01 3.547490544194095463e+01 7.316158939409626782e+01 8.784767204123369311e+01 6.684639653464431319e+01 6.666585086086544720e+01 4.557437704207153928e+01 4.514998016610319098e+01
6.616546659288451337e+01 6.935995771153453404e+01 4.298695684917897886e+00 -6.833851073939015919e+01 3.027676703109687395e+01 3.674997647440603998e+01 7.245762607755727913e+01 8.186279123202891128e+01 6.261936859283361656e+01 6.305811770743507338e+01 4.430264173654260418e+01 4.445694125196344260e+01
6.790364793533481702e+01 7.016323183930036578e+01 3.683890781076786691e+00 -6.966945681824873304e+01 3.191695444397572601e+01 3.694890563183940912e+01 7.146821466687845259e+01 7.760399304236834439e+01 5.897660042184071472e+01 6.057290275706264993e+01 4.362786817330551514e+01 4.351529091599083898e+01
6.712778482225611754e+01 6.958305192450806942e+01 4.289641796856728639e+00 -6.977375504557460317e+01 3.150340247834975216e+01 3.714923910724821354e+01 7.043362175052692464e+01 7.138627018769628307e+01 5.454773288239498186e+01 5.712493182915211065e+01 4.189198963728301095e+01 4.201087602658039089e+01
6.444274160339830360e+01 6.797669655066319194e+01 4.051208891454193939e+00 -6.751260206619909354e+01 3.007817748179814643e+01 3.645996671221023888e+01 6.914765306862184957e+01 6.679998126513822854e+01 5.107119260777158587e+01 5.452171907807825590e+01 3.993230756538186910e+01 3.951147581336991266e+01
6.091198974880584416e+01 6.553506975619350783e+01 6.089051141730588590e+00 -6.383514258559815602e+01 2.777297739319417857e+01 3.547815341998211380e+01 6.629777492981118314e+01 6.229007972171907426e+01 4.641958770244393406e+01 5.123232685354495430e+01 3.784534699667941027e+01 3.578182107464756001e+01
5.636183342443683841e+01 6.180617815326821329e+01 5.584811674158554951e+00 -5.983375583834651934e+01 2.565691377065539314e+01 3.443446914579354967e+01 6.344439294439359145e+01 5.759424675604144284e+01 4.363110316712326409e+01 4.804155819921059845e+01 3.595656840965577317e+01 3.220830753134285374e+01
5.114017784719159465e+01 5.784139206178281967e+01 6.881993590830157714e+00 -5.537031316682596582e+01 2.205326037335192524e+01 3.312913753836311770e+01 6.019340285212106068e+01 5.430302644632230624e+01 3.955585413973292219e+01 4.396734318994121793e+01 3.383855318828439351e+01 2.945258428803861861e+01
4.664987945021518101e+01 5.372226120927042103e+01 6.764260498282332001e+00 -5.046641027295986248e+01 1.996638281574739082e+01 3.065447619435804683e+01 5.789826429691457577e+01 5.139937886894161778e+01 3.685285153623073029e+01 4.169296342744323880e+01 3.197479062367332148e+01 2.623367195930921270e+01
4.363661633668763784e+01 5.021301443812828325e+01 7.373251926180737215e+00 -4.780878534893859211e+01 1.814632014263582604e+01 2.952944110488747853e+01 5.583162171222782177e+01 4.828586819207851732e+01 3.484974189907799769e+01 3.801003969932308735e+01 2.980598039172880220e+01 2.381235573150692275e+01
4.239999157955603692e+01 4.809226584396761695e+01 6.163669450834627916e+00 -4.622001922637024052e+01 1.804743463481786847e+01 2.828963324876804464e+01 5.432510675880331519e+01 4.575278445120895299e+01 3.298671957261932874e+01 3.602466247152037226e+01 2.832174189848491253e+01 2.227298437429440625e+01
4.216754773498988129e+01 4.849493839300583886e+01 6.231861431986352784e+00 -4.639558699643241368e+01 1.828471364879437289e+01 2.800704959354475321e+01 5.388606518970554049e+01 4.439273770557986154e+01 3.111460290769652204e+01 3.411219490658049125e+01 2.792312072043080917e+01 2.199517787175429007e+01
4.421003749925636583e+01 4.948461648800720525e+01 5.286529477277713163e+00 -4.759003845052436077e+01 1.977456360736954366e+01 2.790732820093673183e+01 5.411651167394623485e+01 4.348443200524243224e+01 3.114844913195413767e+01 3.379308899190140636e+01 2.800753382177047257e+01 2.190595390342484095e+01
4.593505064959051509e+01 5.098054389679471399e+01 5.074201757212908781e+00 -4.884805006253110093e+01 2.031097195804899513e+01 2.845707868841072496e+01 5.382328452513846884e+01 4.245523121672247413e+01 3.079256168379559711e+01 3.206628977985633355e+01 2.835475877611253281e+01 2.252437276177854741e+01
4.827193359848093479e+01 5.313816783498288743e+01 4.808153887355485878e+00 -5.134325611125681377e+01 2.180642708950160369e+01 2.960386074640478782e+01 5.458807114194986809e+01 4.140894587743457578e+01 3.125888552805620435e+01 3.226111194024873186e+01 2.969467279238823210e+01 2.311059263344242964e+01
4.954516895578343139e+01 5.503646714848832033e+01 5.579324557032502518e+00 -5.240584219871819016e+01 2.192987484963523670e+01 3.042486075159280645e+01 5.506712577454173640e+01 4.087527179446604464e+01 3.065186493499489373e+01 3.130670182269543034e+01 3.038010668882308707e+01 2.330027740221885324e+01
5.054371177072040666e+01 5.712282882296090492e+01 6.448206163986069051e+00 -5.412731423500149219e+01 2.208900230298422684e+01 3.206692315862331810e+01 5.528699707103054095e+01 4.107451748196467634e+01 3.178698327667761703e+01 3.100287492514021537e+01 3.175031433888379340e+01 2.472369420165789577e+01
5.161026330283296204e+01 5.900645813221622404e+01 7.618465724926070770e+00 -5.557944743469833071e+01 2.195238544960767868e+01 3.363670183696630289e+01 5.712436270694407625e+01 4.095336066953637300e+01 3.182274375440683656e+01 3.099994658048354523e+01 3.193246150558552898e+01 2.535846143114234508e+01
5.175891252587040015e+01 6.122306771661941127e+01 8.774018490580889562e+00 -5.665831174365251144e+01 2.168248867174693473e+01 3.487816895490433211e+01 5.865673804947303438e+01 4.101487287375852731e+01 3.261683942310833118e+01 3.061393083659167047e+01 3.244935289442899062e+01 2.675456722611532712e+01
5.026616539609946699e+01 6.223854547251968228e+01 1.139040070021026274e+01 -5.665826796412522981e+01 2.033188477207709965e+01 3.688779945476505162e+01 5.944762808492661321e+01 4.105262315086813629e+01 3.334763086361620310e+01 2.973594814309972278e+01 3.360788871429196689e+01 2.695906528928606605e+01
4.937655288840236523e+01 6.156643372971546313e+01 1.238650933718084524e+01 -5.544491748218502636e+01 1.923436303528209734e+01 3.692402204500158547e+01 6.063956794665842409e+01 4.054499211029646943e+01 3.483471918898143826e+01 2.987383042469479477e+01 3.413712410286979804e+01 2.710231182144489637e+01
4.584625615874160331e+01 5.972831341570417862e+01 1.376622300281669986e+01 -5.379940107841756713e+01 1.668030209418589749e+01 3.678930472919081041e+01 6.112605187699413278e+01 3.978487960630788223e+01 3.478091365833356718e+01 2.810188025532891842e+01 3.388163665786087364e+01 2.682130523445423620e+01
4.195613647881910424e+01 5.580818061311623524e+01 1.393407777502909006e+01 -4.975553241720036368e+01 1.517579740161785118e+01 3.483232261075527703e+01 6.056531733843227272e+01 4.015560479819046691e+01 3.570302315809152560e+01 2.784118396036290122e+01 3.413511676893151758e+01 2.758823120252510464e+01
3.779047867919232573e+01 5.196899230916945811e+01 1.411330706166939386e+01 -4.601598094750833212e+01 1.270619262520681403e+01 3.308610401185969607e+01 5.940092873990049327e+01 3.986830283917243634e+01 3.586753157551531501e+01 2.604131497333928991e+01 3.380179293918497052e+01 2.804545620351514756e+01
3.394302389579502943e+01 4.776012187538697873e+01 1.387494821879190710e+01 -4.170631397734172197e+01 1.117825378855489582e+01 3.074189104679277662e+01 5.853134077487419518e+01 4.011891904027567790e+01 3.662080021414357134e+01 2.627678727881549037e+01 3.460091993839121471e+01 2.833832310532727661e+01
3.015415268563047491e+01 4.431828046440529079e+01 1.410518160115233322e+01 -3.841136696472835155e+01 8.694206791880931817e+00 2.949987671693512681e+01 5.742040356091953868e+01 3.988915034174144125e+01 3.696113118246433515e+01 2.560310486826795895e+01 3.503073950351483745e+01 2.970992480634924604e+01
2.769407267133096440e+01 4.180845420436926929e+01 1.418782023892921629e+01 -3.537615404855575463e+01 7.244958436620785314e+00 2.836918444515015381e+01 5.649470692876539601e+01 4.010473598842062160e+01 3.746698243042784782e+01 2.683371744448498220e+01 3.535288849293824143e+01 3.000497711027252024e+01
