5.899999999999995737e+01 1.970000000000000284e+02 1.370000000000001705e+02 -1.279999999999999716e+02 -4.000000000000007105e+01 1.670000000000000568e+02 -4.400000000000010658e+01 -2.700000000000009592e+01 3.700000000000008527e+01 4.399999999999999289e+01 4.999999999999995737e+01 6.999999999999995737e+01
6.002011758109217965e+01 1.781636076560676543e+02 1.211449209443074011e+02 -1.180935852186368891e+02 -3.006447933742848377e+01 1.491532858810407163e+02 -4.902679823936531278e+01 -2.607131604684773762e+01 3.702330055657850494e+01 4.304386137199733042e+01 5.004887961581494693e+01 7.104163659872011749e+01
6.196317777775086455e+01 1.728089647732160756e+02 1.108487027028781995e+02 -1.168811537420431392e+02 -2.394136407606103134e+01 1.428270632101350373e+02 -5.793249019292517943e+01 -2.590746717039530367e+01 3.498027239893910689e+01 4.194753893383209942e+01 4.894138725837477466e+01 6.895617018403216036e+01
6.800637457882243098e+01 1.791731635135340923e+02 1.121642272750745661e+02 -1.230987274238726883e+02 -2.108163819657297466e+01 1.451784118363407288e+02 -6.701651211049149026e+01 -2.908567421878348824e+01 3.104175149807887735e+01 4.106753186789302390e+01 4.906436753059524847e+01 6.705275358648596296e+01
7.294999956044763678e+01 1.867519075948740408e+02 1.138072704650327864e+02 -1.278477836781245713e+02 -1.992307040143061769e+01 1.487752550202420991e+02 -7.590842910469378069e+01 -3.088939676873117079e+01 2.996792103917557171e+01 3.696056598255151471e+01 4.794604717156418872e+01 7.091556293447128212e+01
7.700996446362762526e+01 1.941841849784939029e+02 1.171746444496973254e+02 -1.341019099620963289e+02 -2.008118977145485218e+01 1.551764990646117610e+02 -8.400352222390777968e+01 -3.408782649840460266e+01 2.904087005262190502e+01 3.308251758746369831e+01 4.409054098286013357e+01 7.602869619118925471e+01
7.896430979614738987e+01 1.957902419993098135e+02 1.158306844845829886e+02 -1.358629824547350324e+02 -1.893191197895089672e+01 1.558048574561452142e+02 -9.189693464903956510e+01 -3.390735900245983458e+01 2.994462887528987238e+01 3.192242418849239627e+01 4.292320216407392763e+01 8.189905391274980673e+01
7.903521778468173409e+01 1.913018028401693869e+02 1.122541402163751485e+02 -1.351753275555312541e+02 -1.612116323200019607e+01 1.522785588004757642e+02 -9.702626402343294387e+01 -3.311068366311060629e+01 3.105436585787170856e+01 3.406932127249367426e+01 4.308611310523450300e+01 8.407978460559760947e+01
7.798263336917727884e+01 1.749869999413416508e+02 9.701088669348317239e+01 -1.249842343467641541e+02 -9.002668023169475120e+00 1.360060122831989418e+02 -9.796334398219178752e+01 -3.092620446236829679e+01 2.700288985420788990e+01 2.998445558901276087e+01 3.898638464898341027e+01 7.802459798377026345e+01
7.606446641140944109e+01 1.505165017849985247e+02 7.542654410402725773e+01 -1.132815493529196829e+02 -1.741593799010073274e-01 1.124706158687949085e+02 -9.410900928123291465e+01 -2.716023439729404743e+01 2.309145634530345603e+01 2.611291007484506466e+01 3.214825288444293250e+01 6.913805900297263918e+01
7.007978532042189102e+01 1.201702067055166339e+02 5.210291688369392205e+01 -9.413974826267262586e+01 7.988289137433597809e+00 8.613474495228841477e+01 -8.803993559776746736e+01 -1.999577825551103416e+01 1.702550031710433132e+01 1.806109050665967430e+01 2.501859678614958327e+01 6.496580174064462199e+01
6.013708736736089833e+01 8.955240310142207250e+01 2.944255564304173944e+01 -7.432664845559835953e+01 1.581293735499268038e+01 5.851690175922149706e+01 -7.819760914646769834e+01 -1.123725410971558958e+01 1.502512336891667033e+01 1.011783855338230964e+01 1.812991514605949561e+01 6.210840535147477226e+01
5.791742316076937414e+01 7.485073871245887744e+01 1.592579795445805502e+01 -6.590495160713510359e+01 2.300136540517458883e+01 4.388503104968721402e+01 -6.808197754688087855e+01 9.150125678211813440e-01 1.789051940393623497e+01 8.924905628060706420e+00 1.789081495396018440e+01 5.897484379087438811e+01
6.201257932558281283e+01 7.035522076252888724e+01 9.306929044801627526e+00 -6.419601578744020287e+01 2.687313043364679288e+01 3.832962591004682906e+01 -5.821854490935611892e+01 1.273061224055588347e+01 2.395016161097181495e+01 1.100532335840799369e+01 2.003829799389534827e+01 5.707317949486050424e+01
5.809342717731366434e+01 5.704042299948428507e+01 -1.796281573226827036e-02 -5.604467083234014524e+01 3.002741168861604493e+01 2.799124704478030523e+01 -4.713755649085527466e+01 2.294931872097182080e+01 2.790655318597849899e+01 1.681185187024246730e+01 2.481006790928701022e+01 5.791175788647518630e+01
5.209670926778522926e+01 4.245898901916299906e+01 -9.660440392901557871e+00 -4.629161837779891897e+01 3.191968488277162663e+01 1.542915291664227340e+01 -3.623792153610196465e+01 2.980353490076792866e+01 3.196741196749137259e+01 2.300223627909368318e+01 3.003051739503554529e+01 5.808718340036632810e+01
4.808777095761141851e+01 3.191644740965497817e+01 -1.418994977349845676e+01 -3.800880286750278003e+01 3.013885473119579572e+01 7.826428212143716756e+00 -2.519180349678779507e+01 3.596511491104044467e+01 3.395240762943371493e+01 2.299342784822570707e+01 3.093015420807701332e+01 5.599321912604064977e+01
4.019388765160024946e+01 2.539492239233703685e+01 -1.376024094697106648e+01 -3.127849837309683423e+01 2.697866774419099301e+01 6.311983462484700880e+00 -1.227819171030970757e+01 4.087394844993492882e+01 3.406756248436318657e+01 1.819361252056459222e+01 2.819517686109597676e+01 5.120951480539953593e+01
3.312552063009850656e+01 1.310296454857536830e+01 -2.002086645453239555e+01 -2.210973976334904023e+01 2.509216476147591024e+01 -2.963558301169047837e+00 -4.090047507382972292e+00 4.011452664149731362e+01 2.817913404459526205e+01 1.110088462810498378e+01 2.013522586375690082e+01 4.121867073772388324e+01
2.425880703279809936e+01 -2.408483661380824259e+00 -2.665923352564413307e+01 -9.454332006430613333e+00 2.493867809020415294e+01 -1.450291695896083688e+01 2.791890344130377066e+00 4.088242559419046529e+01 1.823406408698186709e+01 2.301664721528531743e+00 9.330263299942963329e+00 2.641133513852760473e+01
1.422270397166588296e+01 -2.072359606423755096e+01 -3.591543575788475096e+01 5.750678533442849627e+00 2.311945545520416445e+01 -2.884111719180276978e+01 9.851694076773494402e+00 3.918564080015162432e+01 9.215117381086196602e+00 -8.802001189828690286e+00 -8.422902324098254789e-01 1.225502944788583015e+01
2.345893338140692119e+00 -4.225905238626910432e+01 -4.564883920617457846e+01 2.148743264675412235e+01 2.291935184101112455e+01 -4.346382021510621030e+01 1.876432836207245813e+01 3.691803384186490433e+01 -1.700906573994339199e+00 -1.964105235981524089e+01 -1.257311046815631350e+01 -6.289712983545902025e-01
-8.777430335916154291e+00 -5.890019408840069559e+01 -4.914196511758854768e+01 3.483644718701450671e+01 2.021350016245250458e+01 -5.304646375251947177e+01 2.297774369695869723e+01 3.426156165759247330e+01 -1.269909492311836097e+01 -3.270467401802166307e+01 -2.670227541482844558e+01 -1.272066970280304687e+01
-1.774591612971947896e+01 -6.948353146723692930e+01 -5.170771226868264137e+01 4.462440043277711510e+01 1.693066605756784426e+01 -5.955334818028329380e+01 2.684190032454301900e+01 2.798273883411307494e+01 -2.567333594230765570e+01 -4.467558324074109066e+01 -4.153770299266909660e+01 -2.565805527393065333e+01
-2.390961005408896867e+01 -8.089584773718480903e+01 -5.604385545949060798e+01 5.290778473386157543e+01 1.709122489528220612e+01 -6.896071052932012435e+01 2.900509065999717251e+01 2.995999222835083131e+01 -3.100989923666756098e+01 -5.097093978658380564e+01 -4.907307312146222245e+01 -2.913285167469699033e+01
-2.693076667316238826e+01 -9.056139052399814204e+01 -6.258215729642516578e+01 5.972936486798767675e+01 1.782457266325648604e+01 -7.658182055108213149e+01 3.186214871424810724e+01 3.288327901180918644e+01 -3.189544693131470865e+01 -5.381007110892136325e+01 -4.882988598394610591e+01 -2.692527773645581846e+01
-2.517099895534914822e+01 -9.422579634626924872e+01 -6.811148917398473657e+01 6.022975825527665705e+01 2.196979844194478204e+01 -8.117344838077163161e+01 3.302304086548526385e+01 3.309143306859640177e+01 -3.495081706252140208e+01 -5.985949580036360373e+01 -5.393929079203487476e+01 -3.083676251986557304e+01
-2.106130093467341879e+01 -9.281858647801787754e+01 -7.066598694535831271e+01 5.787882713655888267e+01 2.481779993415548446e+01 -8.172395681399122225e+01 3.585378097464928260e+01 3.290899091178899027e+01 -3.689527068326091808e+01 -6.481196973667714190e+01 -5.775189965455844288e+01 -3.873688994262579399e+01
-1.815475194976344042e+01 -9.223703646273580148e+01 -7.511719085814797836e+01 5.720788953122918485e+01 2.800708042571654843e+01 -8.418288648722850098e+01 3.515129264347864790e+01 3.492567643196809968e+01 -4.085687147106772699e+01 -6.984856959032484269e+01 -6.392206562763505673e+01 -4.107079964119451176e+01
-1.501808331432099308e+01 -9.267020823964864462e+01 -7.665175900508853601e+01 5.581170579372901130e+01 2.980850731293542921e+01 -8.466840118005913496e+01 3.578000619889559175e+01 4.165060924342138549e+01 -4.398461089618448483e+01 -7.486630286660232514e+01 -6.589139989132804942e+01 -4.188574663789691499e+01
-1.501516146433294274e+01 -1.007545060543167210e+02 -8.670557600205711424e+01 5.994692589819528905e+01 3.580029300186975405e+01 -9.373613854029400727e+01 4.088385330430323705e+01 4.882782582144007222e+01 -4.116661602498889039e+01 -7.415194780511859562e+01 -6.707183057366876255e+01 -4.116164941969996960e+01
-1.497330138628803731e+01 -1.134530239822814792e+02 -9.756349058671283103e+01 6.470759206903825600e+01 4.181320467157188858e+01 -1.054918462561881256e+02 4.670209613274813165e+01 5.661122651799068706e+01 -3.715976061574792766e+01 -7.109274317948941757e+01 -6.504877216866023559e+01 -3.991242082178083450e+01
-1.594183951231764595e+01 -1.153684296291534821e+02 -9.933084629693586010e+01 6.714201373916853299e+01 4.121989270857679344e+01 -1.073863421820391011e+02 5.098530885019022918e+01 6.476227517602097805e+01 -3.123359799235959855e+01 -6.532099613681246808e+01 -6.126677283783156014e+01 -3.918162099228494810e+01
-1.797377153329051680e+01 -1.118369425810034699e+02 -9.393279737048368361e+01 6.591748598566567807e+01 3.794532766281981395e+01 -1.018907588528201273e+02 5.287716139970176243e+01 7.268142976702445424e+01 -2.803390764282918823e+01 -6.004916085834065598e+01 -5.604466172709766880e+01 -3.691459749335689366e+01
-1.339105913522807612e+01 -1.112493737919420056e+02 -9.779144207470362460e+01 6.333456333829960982e+01 4.175801362648124382e+01 -1.040088296199111682e+02 5.126346209699573819e+01 7.510232988443098634e+01 -2.701826672678037156e+01 -5.995152149854745716e+01 -5.784153833129592925e+01 -3.988689621576618549e+01
-5.173745591496395235e+00 -1.107718494255643833e+02 -1.056901022301746593e+02 5.892224721745029825e+01 4.968927506328844856e+01 -1.077131445739137661e+02 4.791782734428122126e+01 7.488261708112868575e+01 -2.887563143998806225e+01 -6.379303332718268393e+01 -6.280338699127734259e+01 -4.382433014269999205e+01
-4.873101948834335673e+00 -1.103056778548523340e+02 -1.034547787823099299e+02 6.007303634894343958e+01 5.026483586127601200e+01 -1.073436976184077878e+02 5.088080729978784689e+01 7.692027897730748975e+01 -2.910764757666659008e+01 -6.507401061576445045e+01 -6.408055794515659898e+01 -4.413582160569087876e+01
-9.729117341984803602e+00 -1.087216339749580669e+02 -9.791945502212770691e+01 6.077404113658846541e+01 4.511043855356075483e+01 -1.038423157931880922e+02 5.569427797512461353e+01 8.260468984071313514e+01 -2.705687950809661757e+01 -6.585384616516233791e+01 -6.299341020334554031e+01 -4.295828982663012852e+01
-1.571515602674937107e+01 -1.156530558762966621e+02 -9.994155338536727129e+01 6.670974908340791387e+01 4.216572308756518339e+01 -1.078147055589030003e+02 6.084198849291841782e+01 8.973262703724570599e+01 -2.511278729973048840e+01 -6.616488092530720166e+01 -6.210015945804878612e+01 -4.121310552885514511e+01
-2.183877431583044881e+01 -1.274542938470539752e+02 -1.046597449921864751e+02 7.557186731485710141e+01 4.183246327620557992e+01 -1.164877671230043035e+02 6.663014667208308595e+01 9.850327822902406183e+01 -2.310674638867095609e+01 -6.307949362964191664e+01 -6.010420106783214322e+01 -3.895551773903007131e+01
-1.846340675364413286e+01 -1.274608966849285707e+02 -1.079940991306717279e+02 7.639313988353821117e+01 4.490723830223385704e+01 -1.192474498362092845e+02 7.187691091222858120e+01 1.048980267584719712e+02 -1.921914852978508748e+01 -5.931707732771469210e+01 -5.622547073381680605e+01 -3.817350641175347192e+01
-1.020713500865475787e+01 -1.229912678749971207e+02 -1.108344707355740866e+02 6.918718290165678297e+01 4.873796506104478965e+01 -1.169801799272744489e+02 7.666519119315800879e+01 1.087024687508853162e+02 -1.611845913589121437e+01 -5.409899767161730466e+01 -5.310162886979896513e+01 -3.597496333631426779e+01
-8.076087970570368313e+00 -1.148432821716265551e+02 -1.056671070553030205e+02 6.345785629683145146e+01 4.929103002172197279e+01 -1.097717077338454317e+02 7.914205878197992661e+01 1.128901198947428242e+02 -1.222717616212102243e+01 -5.393439843564491554e+01 -5.100940076500705800e+01 -3.605956636869904486e+01
-7.017789604038672024e+00 -1.041217262348802137e+02 -9.617485561326027721e+01 5.708279917383748625e+01 4.407071652828368968e+01 -9.914983439649235208e+01 7.788351320469563177e+01 1.167420334461096587e+02 -1.001039338278867952e+01 -5.681943963753433025e+01 -5.472739028787584203e+01 -3.594425673703135260e+01
-6.094956676391265482e+00 -9.943273694023962150e+01 -9.315516989132486003e+01 5.520185350688442583e+01 4.404932145872949434e+01 -9.622462481502188325e+01 7.907468006717675735e+01 1.181169494814597556e+02 -9.077252923805275486e+00 -5.803132567794839503e+01 -5.608662019065681648e+01 -3.514066675693094766e+01
-5.000787124658480742e+00 -9.849687160720752388e+01 -9.553859368494033788e+01 5.382522954253112601e+01 4.383458214410066489e+01 -9.752575266772134910e+01 7.973304766081963635e+01 1.187158947879742215e+02 -8.966469173903131917e+00 -5.891335214833695488e+01 -5.685534255919910862e+01 -3.486124025077760535e+01
-4.135894712149249308e+00 -1.102683335003446672e+02 -1.062249575504997381e+02 5.869770565855127131e+01 5.048796702939544900e+01 -1.082930050581457238e+02 8.569325184426813280e+01 1.255744069250097681e+02 -7.238022250784350575e+00 -5.639684347050371827e+01 -5.622417446881097902e+01 -3.519197311671904060e+01
-2.024218951320263304e+00 -1.270855811454754587e+02 -1.240893176568864220e+02 6.558887595650767821e+01 5.959694843817730714e+01 -1.250625486298553710e+02 9.253878752098644611e+01 1.344909682755013023e+02 -3.179639245439631168e+00 -5.019317923076578580e+01 -5.398502918836266673e+01 -3.204493051380925550e+01
-2.914488016022434458e+00 -1.305041872576034905e+02 -1.274742237985800131e+02 6.816231517515294058e+01 6.212702398093834688e+01 -1.294725487626434131e+02 9.704235237169258710e+01 1.407469338172050470e+02 -1.525813065183850015e-01 -4.718538300179378808e+01 -5.312674927218557031e+01 -3.201060014769079487e+01
-3.992417219493320069e+00 -1.267338998164882611e+02 -1.228712582664441157e+02 6.598896908872481504e+01 6.000254948611915040e+01 -1.239152032693144889e+02 9.681726865431386386e+01 1.474905946993394821e+02 1.859710397926315428e+00 -4.594063155815293698e+01 -5.289404086726529641e+01 -3.286819828124143328e+01
-2.224098672749892369e+00 -1.291188019758190251e+02 -1.258134864615908413e+02 6.602962966570981962e+01 6.180563633879331320e+01 -1.268238314078667770e+02 1.008169431800056088e+02 1.537637670028829575e+02 5.750256635713547837e+00 -4.521066898799323752e+01 -5.309351700472857516e+01 -3.403465908769079107e+01
9.387703158591994557e-01 -1.314899971526461400e+02 -1.324926852679734282e+02 6.775212328652712301e+01 6.577426479103566237e+01 -1.325612472741680108e+02 1.046369932969307115e+02 1.595314402874103905e+02 7.929951120345334559e+00 -4.294906800614070619e+01 -5.293316950215307060e+01 -3.394015708770884032e+01
-7.480511682710311305e-01 -1.352413256886489421e+02 -1.334219630736766362e+02 7.001041839277303325e+01 6.621957540409847809e+01 -1.333534763839647326e+02 1.098379552863031279e+02 1.648548406308671019e+02 1.076898647150658306e+01 -4.403518572720495428e+01 -5.214299231528998746e+01 -3.407227442068184331e+01
-4.808482076598592059e+00 -1.328499636037704192e+02 -1.290267668063345070e+02 7.085145217232712866e+01 6.218450884951013791e+01 -1.308709768938679758e+02 1.118135648478104542e+02 1.677354004387577220e+02 1.205370707438867584e+01 -4.300909176707709491e+01 -5.191839657785938300e+01 -3.390367902081477780e+01
-6.870939124907625484e+00 -1.341248608190304310e+02 -1.263557584823272180e+02 7.200605354728386942e+01 6.013240677544523294e+01 -1.302620989257949589e+02 1.148500512175459107e+02 1.717229395483458916e+02 1.281965392782882418e+01 -4.304732292802562199e+01 -5.027932737196066171e+01 -3.500727368134521811e+01
-8.967593461316136327e+00 -1.338436892226357600e+02 -1.247721290575280193e+02 7.293334617649642837e+01 5.807165100774872002e+01 -1.297509988148911191e+02 1.177427121110189034e+02 1.776039816656468986e+02 1.492876065833612742e+01 -4.205563810528894919e+01 -4.886017634306350743e+01 -3.496692832991202948e+01
-5.483716979021885152e+00 -1.332953349422375595e+02 -1.269864491074455515e+02 7.037664791265021336e+01 5.967068092692455394e+01 -1.302643753298617355e+02 1.200212054860572692e+02 1.800297876620808495e+02 1.681145725662101498e+01 -4.023400175521844346e+01 -4.917647064318174444e+01 -3.503819364746919263e+01
7.736467409482571389e-01 -1.309659845644097516e+02 -1.296710141548703064e+02 6.704752816752298372e+01 6.481126513024494784e+01 -1.288393290074733386e+02 1.207362172460214111e+02 1.817282563216535038e+02 1.890363506521974557e+01 -3.707531736277916679e+01 -4.791531515649710116e+01 -3.495627775013509364e+01
1.156558395322647481e+00 -1.292581191388972286e+02 -1.302729118113833238e+02 6.517745486130920085e+01 6.417360873519660913e+01 -1.291633907335211688e+02 1.257036679831974766e+02 1.839732106535843741e+02 2.085714676246981725e+01 -3.871382309446457981e+01 -4.810669986132231912e+01 -3.587881387107996289e+01
-1.813775703109875570e+00 -1.296789238160045841e+02 -1.288679907616036076e+02 6.660673343877597574e+01 6.301517823165430343e+01 -1.297346245357421708e+02 1.296509260008751596e+02 1.865948697568446448e+02 2.192628957434155623e+01 -4.282367948066694652e+01 -4.874334214232536056e+01 -3.879606181263745412e+01
-2.993485173916564435e+00 -1.311212860101126410e+02 -1.282500459593397011e+02 7.000413179711182465e+01 6.207729086350529002e+01 -1.302317440931440444e+02 1.355379280203228802e+02 1.925724883937472498e+02 2.474517610262536493e+01 -4.225564969500971557e+01 -5.019177488339860105e+01 -3.913184555349465654e+01
-3.855311548372122754e+00 -1.335317090638516788e+02 -1.277900830671480463e+02 7.080751824973968667e+01 6.200467335090153398e+01 -1.297980405837375031e+02 1.424811703405751473e+02 1.987114667299160544e+02 2.603342853721489192e+01 -3.826409463562409741e+01 -4.795269081889726692e+01 -3.884099935293338746e+01
-5.874930852194764519e+00 -1.344682834767164366e+02 -1.273620721930995643e+02 7.205355970277253164e+01 6.020992039844175281e+01 -1.293195711073763334e+02 1.469476259730757590e+02 1.957332707459846404e+02 2.687413212619723879e+01 -3.600912905309393608e+01 -4.903210927643146988e+01 -4.176312662651720586e+01
-7.780054623107679923e+00 -1.292457402958532668e+02 -1.224849151811484376e+02 7.200540359290886272e+01 5.739109238492525122e+01 -1.262789460374043955e+02 1.477169565168170209e+02 1.865603185810586808e+02 2.703500003172366206e+01 -3.695543851752898945e+01 -4.884092884848496396e+01 -4.482432655996280602e+01
-1.250158179925071877e+01 -1.194790204511418068e+02 -1.069848656486721552e+02 6.767383239807180928e+01 4.627187207978321482e+01 -1.128585037560418272e+02 1.552092198841174593e+02 1.753399347702232092e+02 2.878285160798868603e+01 -3.691070415949067751e+01 -5.267067742089194837e+01 -4.676331719852866797e+01
-1.781590790298158922e+01 -9.940533387695829504e+01 -8.171080231742145372e+01 6.040089184027142011e+01 3.098162418772130877e+01 -9.040772443753037635e+01 1.645118184661804719e+02 1.595455034281122551e+02 2.981597347286938060e+01 -3.906877899711551549e+01 -5.511270340692046688e+01 -5.085033046827123826e+01
-1.885219572530687770e+01 -7.898188637553519698e+01 -5.730635736091627308e+01 5.203611237431510261e+01 1.811894409273084960e+01 -6.830938323677136736e+01 1.662468919279973818e+02 1.639197587442759527e+02 4.215289826155924402e+01 -3.022885410413990925e+01 -4.799080271502183592e+01 -4.672355831253496206e+01
-2.185632355762068357e+01 -5.470016274301114123e+01 -3.061529622754532198e+01 3.976425027047399396e+01 4.888439862776661649e+00 -4.156304724558516028e+01 1.614497240248415721e+02 1.770369963795179444e+02 6.450102945890077422e+01 -1.610949904507113573e+01 -3.510966735373738601e+01 -3.861224832373563487e+01
-2.031053303300651081e+01 -3.454092635242881926e+01 -1.417588026587217342e+01 2.991211265919938711e+01 -4.422062533337082435e+00 -2.444185022305124377e+01 1.555463915279961213e+02 1.956236138955597710e+02 8.827759097768628749e+01 7.079600597126143313e+00 -1.443688403204723869e+01 -2.642601289573547163e+01
-1.723763666969066932e+01 -1.992908782567918635e+01 -1.849545083446435534e+00 2.056661766648900880e+01 -8.815404550664618810e+00 -8.934701593762373051e+00 1.469310433654303552e+02 2.212710889139247570e+02 1.178635893493092794e+02 4.114102934470410844e+01 1.431007480564762879e+01 -1.086353843270551245e+01
-1.333875204950913940e+01 -3.853989850034956977e+00 1.069276259405635443e+01 1.115319720637372392e+01 -1.251138397180874406e+01 3.600775874871168014e+00 1.357849596596242066e+02 2.133803414063065986e+02 1.160048992152237162e+02 5.178383333724239890e+01 2.642909228482390205e+01 -3.459632591018804604e+00
-1.029657559588190807e+01 1.344406732956827177e+01 2.267348296469628721e+01 -5.485048807408864358e-01 -1.695038166063279661e+01 1.841895988584074217e+01 1.223062345928830013e+02 1.941898319190039501e+02 1.010714561034771464e+02 5.159773923964561959e+01 3.110191374592453073e+01 -4.513623279682647815e-02
-4.570275734533244538e+00 1.175901099036614639e+01 1.816749835576101901e+01 -1.160001180299213841e+00 -1.282629083360897582e+01 1.513612663214359877e+01 7.646361994157250308e+01 1.212368858633824260e+02 6.162912493146548343e+01 3.436152827202364080e+01 2.149667682609369024e+01 -5.045356881423781331e-02
-2.648108592714135678e-01 7.767137603129936618e-01 1.317071523716077719e+00 2.398568722693412286e-02 -9.926416363095514894e-01 8.475545314467600733e-01 7.009135007468234591e+00 1.024742480775449316e+01 5.266294913448144932e+00 3.184896493911003379e+00 2.008215848419627303e+00 1.529917971084422401e-01
6.084173818116612509e+00 1.937621432741740257e+00 -4.330974228646132573e+00 -3.347506217186936528e+00 5.795281357819282775e+00 3.723378144858152106e-01 -9.069922465158457214e+01 -1.348671312265734059e+02 -6.469471227547296621e+01 -4.121484793623155696e+01 -2.765685205750497033e+01 -4.335125449224407568e+00
1.545414816921918089e+01 1.253755835991066547e+01 -1.891331025832704071e+00 -1.139307836395482809e+01 8.641396378267090839e+00 4.912865411755533707e+00 -2.084250857944598749e+02 -3.172926289481755475e+02 -1.509866640854445450e+02 -1.000883888073811363e+02 -6.959920831021943854e+01 -1.460583119753384196e+01
1.808894502996323439e+01 1.576777854293412240e+01 -2.176295943676243905e+00 -1.504051379307044378e+01 1.020910473091142734e+01 7.599293208158412583e+00 -3.336165272841225828e+02 -4.650910818561617930e+02 -2.464345420842974761e+02 -1.775598302051683390e+02 -1.325829723890349499e+02 -3.959203754913735196e+01
1.685060569242220652e+01 1.537142356090085649e+01 -2.562962393481756251e+00 -1.306272612851903681e+01 8.744998607299290683e+00 7.528997137985248500e+00 -4.702848433182714984e+02 -6.065136622377150388e+02 -3.525955036512211223e+02 -2.734487858174949224e+02 -2.176284103635082943e+02 -7.894818388602722337e+01
2.311699415400229185e+01 1.294117375403497583e+01 -8.394996684635941619e+00 -1.642241530271811456e+01 1.519378563798362869e+01 3.144553483768523172e+00 -6.219637648636282847e+02 -7.329112028656655866e+02 -4.485376878678644630e+02 -3.610571113944959620e+02 -2.904553709575290554e+02 -1.016104248007168138e+02
3.199076754565489367e+01 1.380709059234491320e+01 -1.780388283443334529e+01 -2.144988729877180589e+01 2.402922443985803014e+01 -4.060248073183884143e-01 -7.890632229816395693e+02 -8.451483415653863176e+02 -5.328301465144078293e+02 -4.436973725084995976e+02 -3.599171764673588427e+02 -1.159016867072151626e+02
4.960190346536874983e+01 2.241134016994131173e+01 -2.831647169859261126e+01 -3.403313365804265089e+01 3.736699050933268751e+01 -2.458910782886210455e+00 -9.210944325117899325e+02 -9.464984766929773059e+02 -6.059823354924964178e+02 -5.163195068002963808e+02 -4.170056430815546946e+02 -1.218773937533367047e+02
7.388869099884372815e+01 3.791100230277725558e+01 -3.686449206475049323e+01 -5.430517606350630899e+01 5.531003703179786157e+01 1.940324957121468019e+00 -1.035244221683379010e+03 -1.028368800320133914e+03 -6.699361455917553485e+02 -5.785683425172359193e+02 -4.645442646617345872e+02 -1.208235369717807686e+02
9.654542992951834890e+01 4.879039827986121480e+01 -4.802809589350447794e+01 -7.127952234427760914e+01 7.142686815930386501e+01 1.909493239741475223e+00 -1.102974489203755184e+03 -1.044344751520664659e+03 -6.898434393795440656e+02 -6.067701349715993047e+02 -4.852585860280864267e+02 -1.001719225258862451e+02
1.207697681979222608e+02 5.783359324798119872e+01 -6.262222068744621595e+01 -8.681150077113237273e+01 9.060200747614173622e+01 -9.068077601219400874e-01 -1.143490180535310628e+03 -1.012034934027167083e+03 -6.824822881703832991e+02 -6.109583361659775846e+02 -4.869884516180181890e+02 -6.580543276871725311e+01
1.443345048970694506e+02 5.391643770576749972e+01 -9.251690514010425659e+01 -9.710017938333973575e+01 1.179299257849920082e+02 -1.779342702780100893e+01 -1.125923180115749346e+03 -9.266912870010428378e+02 -6.365247004090387009e+02 -5.883060180688155469e+02 -4.619317017624052255e+02 -1.946292938981633824e+01
1.720702610074912684e+02 4.077807144499249858e+01 -1.313518570163330423e+02 -1.043776039139298604e+02 1.511939581918296938e+02 -4.379513237807376669e+01 -1.069619031440794970e+03 -8.175621657772421713e+02 -5.692948595008737129e+02 -5.510941924537162322e+02 -4.184191241244787989e+02 3.516247057290896549e+01
2.026223259847302813e+02 2.364286902010779556e+01 -1.799164843325903291e+02 -1.120738536208951217e+02 1.907936499857798651e+02 -7.661091949750192498e+01 -9.900040084160777951e+02 -6.977321967486091125e+02 -4.874823960559044167e+02 -4.811922288756505850e+02 -3.496758065969170275e+02 1.012544324565467377e+02
2.362174076439592625e+02 4.668360427328020812e+00 -2.316886036156202238e+02 -1.186066727419478468e+02 2.330281574736801815e+02 -1.124796162808896156e+02 -8.880839169476571442e+02 -5.784543096384434193e+02 -3.957763621759544890e+02 -3.905689476560884259e+02 -2.634151629027090280e+02 1.767428471853108931e+02
2.780388853274664029e+02 -2.547062169287818278e+01 -3.034062392454413271e+02 -1.241516075962812522e+02 2.892102653127810186e+02 -1.630082571773230882e+02 -7.733467091502864150e+02 -4.449458743410345392e+02 -2.905540567748628291e+02 -2.921358544631715404e+02 -1.634771910764434324e+02 2.695814404781951907e+02
3.225589221866004550e+02 -6.145324136793648506e+01 -3.849647979476698652e+02 -1.291308255372419183e+02 3.531412702732410480e+02 -2.220886943397733262e+02 -6.459633253357619651e+02 -2.958519843757930516e+02 -1.708416219978245465e+02 -1.867159027911871476e+02 -5.596101558948728183e+01 3.767402600650636373e+02
3.699150130263881806e+02 -1.156191004986278728e+02 -4.857176592020905446e+02 -1.246972188048041943e+02 4.274001088385900289e+02 -2.997562125014741810e+02 -5.340085912316783379e+02 -1.584447362369698169e+02 -3.902072419734099640e+01 -6.062555768098205533e+01 7.777583362053897531e+01 4.959324991561891807e+02
4.225985645291139008e+02 -1.823259894962333760e+02 -6.047381497044437992e+02 -1.176487981962518177e+02 5.126779452702950266e+02 -3.928499294518774718e+02 -4.362375472831487855e+02 -1.544490001173691240e+01 1.088202554571535927e+02 8.138542902919321875e+01 2.342984755883560695e+02 6.327229765505908290e+02
4.563335890087029725e+02 -2.151874517727969476e+02 -6.725976961878994871e+02 -1.180187203600001169e+02 5.634606798024321961e+02 -4.436129556513266152e+02 -3.477884671089096287e+02 1.023294229235297621e+02 2.455786356114739135e+02 2.211251517642353974e+02 3.805740653791964974e+02 7.503652883828390259e+02
4.870551845383370733e+02 -2.283597767703731449e+02 -7.153930728846543161e+02 -1.273597125555790939e+02 6.006392330802400465e+02 -4.702372739768758834e+02 -2.725038130787235104e+02 2.052056006343831598e+02 3.784485867099048733e+02 3.674234685635377105e+02 5.304928249564467251e+02 8.684917986126554297e+02
4.882825016948365260e+02 -2.204271905038229420e+02 -7.096890783450576237e+02 -1.314354431685138991e+02 5.985817800543956082e+02 -4.650831703327716014e+02 -1.905671136313590637e+02 2.916393572294897467e+02 4.728874753711572225e+02 4.682401926755386512e+02 6.269840628915451362e+02 9.404971535638496789e+02
4.739495232645098781e+02 -1.993477788653898131e+02 -6.733595159580803511e+02 -1.352848596892582691e+02 5.722139476473192872e+02 -4.349355708258290178e+02 -1.100196573867454362e+02 3.585181093581936693e+02 5.450918797074946269e+02 5.458031128102541061e+02 6.956665174758960575e+02 9.880809615124360334e+02
4.239934449842789377e+02 -1.698014671062850027e+02 -5.946825333609126574e+02 -1.242357856287427325e+02 5.082224162157099840e+02 -3.812328040386437920e+02 -2.002514767226017511e+01 4.043413600294506409e+02 5.725936958859995229e+02 5.728432778576160445e+02 6.953367000053603988e+02 9.649884993824020967e+02
3.421085897779212814e+02 -1.304103320288349437e+02 -4.727167661321250307e+02 -1.027557295529812222e+02 4.069307927211629021e+02 -3.000123253356730970e+02 8.235263192463510507e+01 4.266776944090524921e+02 5.666529804523098619e+02 5.643568429102485879e+02 6.454006462712882239e+02 8.938778337088336912e+02
2.623534268091111130e+02 -1.080773350956119430e+02 -3.703093932878917940e+02 -7.499972378988408650e+01 3.153753275852756701e+02 -2.391327899037926557e+02 1.672363460516724842e+02 4.312232423980998419e+02 5.175105632844785077e+02 5.005663231616156281e+02 5.331429398437944656e+02 7.557311055759787450e+02
1.719466723816919682e+02 -9.319095956931006697e+01 -2.652336940760766879e+02 -3.834757114047673099e+01 2.175826865547931845e+02 -1.774716993742983391e+02 2.491132521565242826e+02 4.274972654476862886e+02 4.321642307919474320e+02 3.863751075737815768e+02 3.646553062091999777e+02 5.572905682130359537e+02
9.954425907398355378e+01 -8.640236065726975312e+01 -1.858758997630311285e+02 -4.718771635879317472e+00 1.416872254329610996e+02 -1.348274360756970793e+02 3.157444582180792167e+02 4.278471695753809172e+02 3.659791860804655812e+02 2.973910968337623331e+02 2.430568997738900521e+02 3.984989889978303381e+02
3.733720433741185474e+01 -8.714102101698203739e+01 -1.237737241649415694e+02 2.698740911043388380e+01 8.001388400739023155e+01 -1.051220988792700979e+02 3.752431435206507899e+02 4.444180865969993306e+02 3.086849443537427078e+02 2.184381630935884289e+02 1.421601635039606606e+02 2.538304246054998998e+02
-1.880532140761521376e+01 -9.962169352729520710e+01 -7.866572492681373774e+01 6.076840758482543947e+01 2.903299070112469593e+01 -8.764939533534247573e+01 4.240272323164856516e+02 4.667364548532195840e+02 2.561697536017612720e+02 1.460757841854616572e+02 4.926156861723369218e+01 1.223615624687964640e+02
-6.385513485803694067e+01 -1.229070614691972025e+02 -5.891887843515645073e+01 9.437829784960781865e+01 -3.554884372737612708e+00 -8.983738837286148282e+01 4.603197418799668981e+02 4.994579202910355775e+02 2.074467418617069541e+02 8.240284367302967894e+01 -3.167679495885133178e+01 1.447110340379519577e+00
-8.276298332450852513e+01 -1.461328641342093704e+02 -6.333101736470454313e+01 1.163564971535832058e+02 -1.022235139577897201e+01 -1.042117033094303196e+02 4.824593701570638018e+02 5.324795610501819283e+02 1.697590121298779309e+02 2.933005111839038648e+01 -9.451611206625220518e+01 -9.094174868386106425e+01
-7.831321026773848359e+01 -1.724225855927655573e+02 -9.504823604353971689e+01 1.261601436561993808e+02 7.834654623551487340e+00 -1.328122972835709277e+02 4.883229700093606880e+02 5.598476055862715839e+02 1.443669273373325836e+02 -4.338560526785249394e+00 -1.259379298312783533e+02 -1.500403935172703314e+02
-6.272322025688532676e+01 -1.959374070253682021e+02 -1.333689604753395486e+02 1.299845005760730885e+02 3.526539333038461166e+01 -1.636340067746736224e+02 4.797629778864359764e+02 5.772240109919426914e+02 1.309713363271011417e+02 -1.512017212991727533e+01 -1.281113774950904372e+02 -1.717316965464845282e+02
-4.143527925115611765e+01 -2.102368978679991756e+02 -1.687659655181874712e+02 1.283961883594493258e+02 6.371434765580067960e+01 -1.880877287973468697e+02 4.657676609173307156e+02 5.783322824631175081e+02 1.268375522450127022e+02 -8.597397043319228160e+00 -1.022669130224132346e+02 -1.651191516686977820e+02
-2.468886001383667406e+01 -2.227486910339507062e+02 -1.972338779268723101e+02 1.252767932285434540e+02 8.580876915627466417e+01 -2.088146271802208673e+02 4.516821015710041252e+02 5.725190188768178814e+02 1.320104377795409505e+02 6.782382805875752929e+00 -6.678687631706522154e+01 -1.424776389417251892e+02
-1.776477622505747078e+01 -2.282106641525780901e+02 -2.100996715421470924e+02 1.241187802069511577e+02 9.604404215121041943e+01 -2.191144183001584054e+02 4.432758494133218505e+02 5.565127066951645247e+02 1.383299766777122954e+02 2.229025144686432114e+01 -3.336879274079418423e+01 -1.185471580815923005e+02
-2.439296212036566303e+01 -2.214406845365074048e+02 -1.981961720866939345e+02 1.237134734585341107e+02 8.741305635390912698e+01 -2.094407859748386613e+02 4.436062308614339713e+02 5.381990812877156714e+02 1.435177925688252856e+02 3.315176758786623878e+01 -1.511845614973198515e+01 -1.015899108004514204e+02
-4.122384111191590250e+01 -2.083768388165452166e+02 -1.670663256393956431e+02 1.276501229637241295e+02 6.299634720232338481e+01 -1.866803767812944557e+02 4.504632149848872018e+02 5.219681595340287004e+02 1.428461550758879923e+02 3.388186026792090644e+01 -1.536872693834377124e+01 -9.787374100694859180e+01
-5.722394221753524590e+01 -1.903247615630545511e+02 -1.349098975153328013e+02 1.264221518182695689e+02 3.841248409573390887e+01 -1.625208650094540417e+02 4.597070854122165997e+02 5.142797316457615580e+02 1.336742511481152746e+02 2.238161769494458753e+01 -3.464088240478066894e+01 -1.145536221804759407e+02
-5.804454832799176955e+01 -1.918849357309179027e+02 -1.351178407630757476e+02 1.265939362373237032e+02 3.758722117192678525e+01 -1.631049426772951563e+02 4.574816252657294058e+02 5.255701968951929075e+02 1.204635844822429647e+02 3.171795336995148151e+00 -5.772960433900003352e+01 -1.411066238346462569e+02
-5.973985081824400112e+01 -1.927877752381089067e+02 -1.330600853019586225e+02 1.272593320860382988e+02 3.562819787999229959e+01 -1.627731039024999120e+02 4.560816585619607508e+02 5.291685851361150981e+02 1.150510866850295884e+02 -5.709090229626078816e+00 -6.756458612104590600e+01 -1.534428621738633183e+02
-5.865566171169573551e+01 -1.929382894325808877e+02 -1.343021309160615715e+02 1.268551381962685980e+02 3.687425621057716540e+01 -1.637299253301715964e+02 4.528700202049475365e+02 5.312858355849041345e+02 1.134569515645239051e+02 -8.511592131562652597e+00 -6.988491069894465113e+01 -1.582602856586487405e+02
-5.285931287207624507e+01 -1.972301621248767560e+02 -1.443501120573240257e+02 1.255638143526946919e+02 4.427488537152218129e+01 -1.706729655016686422e+02 4.466954694357319227e+02 5.333110845167791467e+02 1.125638579039835605e+02 -8.651161196869553649e+00 -6.632182589329642042e+01 -1.588647940022971170e+02
-4.754179151874576092e+01 -1.974456338265044337e+02 -1.499234788957719218e+02 1.230383856175882187e+02 5.009013391728957032e+01 -1.742107237670812481e+02 4.424910838879105768e+02 5.312558820940032547e+02 1.157591201251388924e+02 -3.640909835015854856e+00 -5.624598787565439295e+01 -1.518751393327977723e+02
-4.436381311116670645e+01 -1.985721280535292976e+02 -1.541894052251973051e+02 1.214992428540549270e+02 5.399188912632489235e+01 -1.764454286141420027e+02 4.393786146034025251e+02 5.269866894214600279e+02 1.175877401744861714e+02 2.056869911515649019e+00 -4.735941365752575649e+01 -1.450555943501884997e+02
-4.291085305356434532e+01 -1.952036549424910845e+02 -1.523117815519647138e+02 1.190911561842942490e+02 5.324182594308430794e+01 -1.733276525557322998e+02 4.371540477368118900e+02 5.214819570246136209e+02 1.199395501081884845e+02 6.011320515779068785e+00 -3.951636206317188282e+01 -1.401353372453518773e+02
-4.464836060757924230e+01 -1.911465308906616087e+02 -1.464781550934679046e+02 1.174429308962680949e+02 4.903211052912421053e+01 -1.682796034758378596e+02 4.376685224592235954e+02 5.169134569295918027e+02 1.192380769605658344e+02 5.899161651049512400e+00 -3.874481623786190454e+01 -1.399391717597459319e+02
-4.746590519529074470e+01 -1.852915191692311225e+02 -1.378479335569712418e+02 1.158870509280251895e+02 4.266546177853053479e+01 -1.607133208816994170e+02 4.398219810624120214e+02 5.122304182245586617e+02 1.165806694322819368e+02 4.693949435010190463e+00 -4.215321491685124755e+01 -1.430204240687780555e+02
-5.145597815514936713e+01 -1.818836522433557832e+02 -1.304010656762293650e+02 1.161151549238765170e+02 3.781274450934325415e+01 -1.549946124976387694e+02 4.407868395817165492e+02 5.111468058482455490e+02 1.125541633330338982e+02 -4.153674893946966984e-01 -4.893265839518690541e+01 -1.493348111060796271e+02
-5.461249390025765393e+01 -1.787041496544138965e+02 -1.241263487618286234e+02 1.166497503419784039e+02 3.337235413412403062e+01 -1.510076529791227813e+02 4.427423351954560644e+02 5.116189768282051773e+02 1.085731944182447251e+02 -4.359544740028974630e+00 -5.608469758662565141e+01 -1.541626373275865376e+02
-5.680728137323778526e+01 -1.801660800656588322e+02 -1.233066790661386989e+02 1.180301452240215951e+02 3.122996410039449344e+01 -1.502744544394908814e+02 4.431934560393208358e+02 5.138205396882872265e+02 1.060812606622746728e+02 -7.061387022784619383e+00 -5.991861020059877063e+01 -1.579749346958934950e+02
-5.714673627817482071e+01 -1.804374854435087343e+02 -1.233957048651590469e+02 1.187131029050828062e+02 3.157806816748820467e+01 -1.512580809652091034e+02 4.413169083909377832e+02 5.156019523012964783e+02 1.059483505566113308e+02 -6.081293501636619858e+00 -5.930274761123698113e+01 -1.571535211623614998e+02
-5.536416662719187798e+01 -1.838076303942227980e+02 -1.275112100937879234e+02 1.192224284089598711e+02 3.455039981568098284e+01 -1.548658651296109383e+02 4.393183944082165908e+02 5.170900144878738729e+02 1.075234219915157752e+02 -4.603581087989870646e+00 -5.508089956627735972e+01 -1.547715717067318337e+02
-5.325881224169005179e+01 -1.855345777867381116e+02 -1.320521704752549681e+02 1.187963142504235350e+02 3.834959736217477655e+01 -1.572104821139555213e+02 4.365559804593364106e+02 5.161542342587478061e+02 1.105940844425433340e+02 2.908928086940785751e-01 -4.792766012979081580e+01 -1.488942744051421414e+02
-5.133161621593779955e+01 -1.871299632279751108e+02 -1.359865703995313027e+02 1.191893718211484554e+02 4.092529671824479465e+01 -1.609453445263562799e+02 4.332904220176112631e+02 5.143936704446077783e+02 1.135159354395908764e+02 4.417800701598843638e+00 -4.196962599272087147e+01 -1.429194724117509452e+02
-4.997526550043189530e+01 -1.869151474602693099e+02 -1.359493231165522786e+02 1.188440659386195790e+02 4.181570027209377116e+01 -1.609724873636256177e+02 4.321798525401374036e+02 5.123054007952595157e+02 1.158424433004492755e+02 7.642513896511571758e+00 -3.650543780378387027e+01 -1.383698727220464946e+02
-5.079379927750031243e+01 -1.848480573393193254e+02 -1.338885594516715685e+02 1.184146551889994186e+02 4.070543371320287207e+01 -1.588444460610301405e+02 4.303178124271877323e+02 5.087857498615105101e+02 1.161615259734918766e+02 9.757820037223172704e+00 -3.493970131451194305e+01 -1.362702064594701028e+02
-5.260847583357199397e+01 -1.811234421373386283e+02 -1.285997716132619360e+02 1.168741642686942015e+02 3.642091125845568911e+01 -1.543808782958165864e+02 4.290844513721029898e+02 5.052073734964618552e+02 1.135997630744815297e+02 9.458952328193824144e+00 -3.655065636308263066e+01 -1.365102906982631907e+02
-5.479407748556707958e+01 -1.788016718060219716e+02 -1.239347962028509613e+02 1.171915059065523792e+02 3.361974724464811715e+01 -1.508404329927254537e+02 4.281967078936276039e+02 5.034646990912457341e+02 1.104059955860339812e+02 6.389455407272909504e+00 -3.949190790294785103e+01 -1.396355090865135082e+02
-5.581989582989267973e+01 -1.758032888152496014e+02 -1.200680813255541750e+02 1.167635628927363598e+02 3.022768697550115391e+01 -1.478210132416721763e+02 4.271671796391727867e+02 5.011432058458602228e+02 1.074524786434148780e+02 3.594323665583199379e+00 -4.335878154978312438e+01 -1.424103189697769096e+02
-5.689869042308392011e+01 -1.770211122731716387e+02 -1.199825670682287608e+02 1.179800329044166034e+02 2.990821067012855394e+01 -1.489946531998783996e+02 4.254037764620643429e+02 5.002055372812682208e+02 1.060234269417838107e+02 2.996981914847768880e-01 -4.588544566426060101e+01 -1.449621841014080985e+02
-5.708143080977994543e+01 -1.783478565264447013e+02 -1.222256317367830150e+02 1.187021226933199074e+02 3.149174950089552638e+01 -1.503595419199131982e+02 4.232570490800486027e+02 4.998387179449521227e+02 1.051936889611318264e+02 -8.804973808010770897e-01 -4.681414184944517132e+01 -1.449347136656992348e+02
-5.552961361038629207e+01 -1.810601731794956493e+02 -1.257219699377863975e+02 1.192973832565205043e+02 3.459880023653696668e+01 -1.537356067300882785e+02 4.213901087143661925e+02 5.001835660366815546e+02 1.056265415606149105e+02 -1.102579688448515949e+00 -4.644839059777812196e+01 -1.444242543097940938e+02
-5.166526671544642113e+01 -1.808640345755215719e+02 -1.290954130993407318e+02 1.172977330321150475e+02 3.736492281134730575e+01 -1.556337786868465116e+02 4.192433291470898098e+02 4.990879857164213718e+02 1.070084758673239946e+02 -2.135210930645097815e-01 -4.344448097240156415e+01 -1.414254198471943766e+02
-4.768666312707676980e+01 -1.797427251024032557e+02 -1.321709979212643589e+02 1.139380827393163997e+02 4.143178922434307054e+01 -1.555278282301171373e+02 4.181124066393235807e+02 4.982418151373842647e+02 1.076795804782423573e+02 1.654288843985765034e+00 -4.052073887233598271e+01 -1.386070985025362177e+02
-4.358000486886982117e+01 -1.761601650219835165e+02 -1.317213225992341563e+02 1.093327614536920009e+02 4.383964894409997015e+01 -1.538179106278157917e+02 4.179452955219377941e+02 4.971262363147583301e+02 1.089781590581232820e+02 2.896620669890222821e+00 -3.821344126779935380e+01 -1.353147821626724294e+02
-4.115938711220611879e+01 -1.746030482423806518e+02 -1.323328558040682310e+02 1.074563317104090743e+02 4.403536318863562826e+01 -1.535650727064668786e+02 4.180207974064775271e+02 4.954561903264055900e+02 1.096924135178489621e+02 4.544843277861918551e+00 -3.641203257464999865e+01 -1.341275662695554161e+02
-4.091660328471306940e+01 -1.719843965949426376e+02 -1.309213244632355782e+02 1.058327920551745081e+02 4.406447502912543257e+01 -1.509638906165912999e+02 4.186854921491494110e+02 4.939125101375158238e+02 1.109836206175785094e+02 6.065843190726503131e+00 -3.497074566668664630e+01 -1.338808111030438397e+02
-4.177850263442793022e+01 -1.721476600002860664e+02 -1.304756303439558849e+02 1.070049429146060191e+02 4.243400066793851977e+01 -1.512196548788331540e+02 4.200494036047527970e+02 4.941807338449750659e+02 1.110095877308119583e+02 5.889905736390647739e+00 -3.504535101736679081e+01 -1.348281072850784312e+02
-4.291930742744375493e+01 -1.718593494743905978e+02 -1.281065870532902693e+02 1.068816385028070641e+02 4.101366931992033926e+01 -1.500218407647463721e+02 4.191067623569094849e+02 4.930513382050212385e+02 1.101978522934949325e+02 6.113588214224315642e+00 -3.566830133584595330e+01 -1.358658027437711269e+02
-4.298829564293517791e+01 -1.714190846815307054e+02 -1.272876222757882374e+02 1.071898713989847352e+02 4.027717452521440578e+01 -1.493458812352647556e+02 4.190576317680515217e+02 4.930310813350233730e+02 1.106331970595154814e+02 5.889724889910449512e+00 -3.700258253340126657e+01 -1.360414352878123054e+02
-4.311083516631035195e+01 -1.699737108492725213e+02 -1.267598821383492691e+02 1.060591950859167838e+02 3.976616201489596847e+01 -1.479983806544972254e+02 4.174798301074285973e+02 4.929522688620785402e+02 1.112867497973922326e+02 6.088479270510696040e+00 -3.696395322466776889e+01 -1.360618683856788778e+02
-4.140234620940678667e+01 -1.686333052976380884e+02 -1.272347727489682256e+02 1.053575255028484889e+02 4.093758731697715803e+01 -1.473205354256819817e+02 4.152393808611469126e+02 4.930501280091701233e+02 1.106751234075481563e+02 6.584039069349109319e+00 -3.635572720286435100e+01 -1.344400921213861579e+02
-4.005325446370871845e+01 -1.667488710475826963e+02 -1.267676866173645038e+02 1.032333249132465340e+02 4.169861230971099531e+01 -1.467445204469600242e+02 4.134996126245237065e+02 4.929553470397949582e+02 1.121250166942412818e+02 8.811827240145536422e+00 -3.430258624579102644e+01 -1.330539732365504619e+02
-3.927266564689853112e+01 -1.673580686883325654e+02 -1.272143977751039614e+02 1.021801966300143221e+02 4.296497730422872507e+01 -1.472498814476644498e+02 4.104516079594896496e+02 4.930284839603349951e+02 1.110228351314346753e+02 9.738486709102149419e+00 -3.236815022797004815e+01 -1.315540754437753890e+02
-3.809227906633861949e+01 -1.658491185974143036e+02 -1.274429177302162088e+02 1.018600379439508288e+02 4.362586210112866780e+01 -1.467226177300641439e+02 4.083596761060997551e+02 4.930223415922514505e+02 1.111320594071775076e+02 1.098847869719152648e+01 -3.107883602442577242e+01 -1.291657364675243969e+02
-3.727201222713970452e+01 -1.669416249063076521e+02 -1.299740317198093749e+02 1.021504224279669870e+02 4.579339219126468663e+01 -1.479778758321180874e+02 4.062926610375517384e+02 4.922216283901194629e+02 1.100835534410502419e+02 1.023760090349535368e+01 -3.018916054178693642e+01 -1.282046088876771535e+02
-3.603383775409736245e+01 -1.677074275129514831e+02 -1.298665032333138072e+02 1.018046691858251194e+02 4.608500148011812314e+01 -1.486867639023706147e+02 4.051616318338211613e+02 4.918716989987236730e+02 1.100400840474378441e+02 9.099869091845459224e+00 -3.060347060823598042e+01 -1.278800995748066072e+02
-3.670071565111413747e+01 -1.681969154398695423e+02 -1.301869023377096539e+02 1.029217348155528100e+02 4.523311964534799756e+01 -1.492416070428071748e+02 4.041585448134824787e+02 4.921039232894349311e+02 1.092703254644068664e+02 9.015886704206252489e+00 -3.199866569258011495e+01 -1.280520785615175328e+02
-3.863381950101790352e+01 -1.685181160194494510e+02 -1.291494917023839264e+02 1.036493758946494239e+02 4.416499210763483063e+01 -1.487753656009457757e+02 4.032791935731642070e+02 4.918915630495224605e+02 1.073751214190838965e+02 8.218587673745531674e+00 -3.265055555111720764e+01 -1.287074105290669763e+02
-4.056605737033265058e+01 -1.701006451683220178e+02 -1.274571077366148160e+02 1.057307582403252439e+02 4.251428512639116519e+01 -1.492142045406029638e+02 4.012954565588032096e+02 4.927473353703224461e+02 1.060720619140279553e+02 7.888921279948112542e+00 -3.397043955844214480e+01 -1.291901138175710742e+02
-4.347154700047236275e+01 -1.705272315219875452e+02 -1.267027095319827907e+02 1.068119954678173684e+02 4.017301404702447343e+01 -1.487989668911822605e+02 4.008809163342617126e+02 4.946428772531286882e+02 1.052851110132318979e+02 8.063510213635980861e+00 -3.468689098121606662e+01 -1.288453642927528335e+02
-4.501408887164252803e+01 -1.721151168941265439e+02 -1.272481166082209114e+02 1.078212029232960845e+02 3.994435709220642394e+01 -1.491653392676714702e+02 4.010725281521890224e+02 4.958052164316863468e+02 1.040721895810496562e+02 8.009093759837506710e+00 -3.527962664712088525e+01 -1.291237075458690526e+02
-4.498039698847384216e+01 -1.724550670572405409e+02 -1.273883917443846201e+02 1.088454018748961971e+02 4.069412038741291582e+01 -1.495102419413238124e+02 4.009529587630188985e+02 4.982845525959087354e+02 1.039500216486721058e+02 7.221116308103513681e+00 -3.402037192988174752e+01 -1.289373781724565049e+02
-4.434807066627724481e+01 -1.749339622034645458e+02 -1.306116675033603087e+02 1.090536476680690470e+02 4.261600220332985600e+01 -1.517727568044755060e+02 4.010227333814730173e+02 5.008432895030384202e+02 1.047787319942548692e+02 6.936925976602760002e+00 -3.341455147476962395e+01 -1.283124738945571153e+02
-4.238729869040781750e+01 -1.749301304246650375e+02 -1.332426950578578158e+02 1.090476279648820963e+02 4.462178634238284758e+01 -1.535330572399233517e+02 4.010267837513399058e+02 5.024203950253572657e+02 1.051253403688891126e+02 6.284839837124253314e+00 -3.123192126527841950e+01 -1.277956669274569776e+02
-3.969864729462248221e+01 -1.744276091991706892e+02 -1.359937841654710553e+02 1.075351073209732533e+02 4.659239885907843615e+01 -1.543346683161155966e+02 4.002657926100740156e+02 5.048396955802522825e+02 1.049042760502844942e+02 5.849859437236848869e+00 -3.021430077336180631e+01 -1.281601173740391459e+02
-3.643179348669263362e+01 -1.723456539957321070e+02 -1.358894332095605080e+02 1.053223703467755428e+02 4.872039522675564882e+01 -1.530464108595461994e+02 3.991498131044880324e+02 5.056990380384353898e+02 1.050720378308181751e+02 6.049550472472261298e+00 -2.983225034310327217e+01 -1.279062477064019845e+02
-3.441914473201298819e+01 -1.690382384893852077e+02 -1.354640266563484090e+02 1.027061256306475912e+02 4.911003322573049701e+01 -1.516475985369102091e+02 3.981941997320672044e+02 5.069417701259696969e+02 1.049638014751485002e+02 6.753674643901793395e+00 -3.018058142957376688e+01 -1.273443955828123961e+02
-3.232559200678173283e+01 -1.651685877047931967e+02 -1.338804274325775623e+02 1.001569082580331695e+02 4.894014514697015983e+01 -1.491385313664812600e+02 3.978619553890971474e+02 5.075961799563486352e+02 1.049375590446144884e+02 6.398403609613551701e+00 -2.976387585268717473e+01 -1.267958434430750145e+02
-3.109708233782704667e+01 -1.643271422506607848e+02 -1.342251750750968995e+02 9.923932574006092011e+01 4.900029526102725441e+01 -1.482383207342713831e+02 3.987903699088756753e+02 5.103742013477020691e+02 1.064923117671850150e+02 5.764341204633137039e+00 -3.097780651771424942e+01 -1.264783105543257022e+02
-3.101656083837400857e+01 -1.637049382274121285e+02 -1.336762243706143636e+02 9.885807126370335141e+01 4.970409277230208289e+01 -1.485383799671001839e+02 3.998562580571986587e+02 5.134621904935344219e+02 1.079799026505457960e+02 5.523392212132535839e+00 -3.088290588322655594e+01 -1.255361210541678929e+02
-3.025109706953667299e+01 -1.649292834918426820e+02 -1.357048304142010409e+02 9.906894453898895847e+01 5.086359479413852114e+01 -1.499835079422720696e+02 4.000440243623694414e+02 5.156321822017437171e+02 1.086997265531054495e+02 3.863797548977090823e+00 -3.182436902900017373e+01 -1.278604320405707853e+02
-2.984110697162511983e+01 -1.663492963627126358e+02 -1.374607968593393252e+02 9.967085324400254365e+01 5.177258996373972622e+01 -1.513333599753254362e+02 4.000253191956377350e+02 5.182635109939045606e+02 1.091928335842398212e+02 4.212096435419737439e+00 -3.276023847978345316e+01 -1.285919253740787838e+02
-3.017912041126310640e+01 -1.688068731347934204e+02 -1.397297268124357856e+02 1.001956122878266058e+02 5.275354712905046028e+01 -1.537880802190941267e+02 3.992480481501019085e+02 5.215369877318888712e+02 1.088665982115531961e+02 3.762400831276910385e+00 -3.380645409727784312e+01 -1.307184986401626645e+02
-2.912041803436855858e+01 -1.710275231238407514e+02 -1.420816776351680915e+02 1.004650664906309316e+02 5.459834074646649071e+01 -1.561178158116460111e+02 3.988327660674188451e+02 5.236041862659596973e+02 1.084562095564239712e+02 4.288834961351013497e+00 -3.548927347747157768e+01 -1.324357366429236151e+02
-2.895393135878364888e+01 -1.754342966993976916e+02 -1.464100419567934352e+02 1.028112655808092768e+02 5.579504813057365453e+01 -1.595780661247963508e+02 3.997765441528211454e+02 5.255289070142490573e+02 1.069219502060820020e+02 3.012294823322647641e+00 -3.705128095045390779e+01 -1.348019358304173352e+02
-2.910625834731881767e+01 -1.783148911387244482e+02 -1.492552941621391653e+02 1.037184191535968267e+02 5.821875721498619072e+01 -1.629569150452440169e+02 4.014903032546955615e+02 5.283998050439134886e+02 1.071980339540268403e+02 2.469110761810163979e+00 -3.687355896112582343e+01 -1.357004844725057637e+02
-2.754952943484158823e+01 -1.801545672949001755e+02 -1.525653888332635120e+02 1.042526035791402137e+02 6.082899732420403893e+01 -1.660576274620998163e+02 4.036643025553639745e+02 5.305770202445889936e+02 1.060906719871573500e+02 2.175291396978004665e-01 -3.715718925223071523e+01 -1.368997246857377377e+02
-2.530938145102231829e+01 -1.798143387677640419e+02 -1.545464473749251226e+02 1.030828885519799911e+02 6.236563273374655125e+01 -1.665112532130943634e+02 4.055277629443532987e+02 5.340171179696225181e+02 1.059638470672238952e+02 -7.118329227722910435e-01 -3.677982108366258984e+01 -1.377164714946906940e+02
-2.350167820429048504e+01 -1.795527292406834476e+02 -1.559960328378039378e+02 1.023566462028668838e+02 6.485374245731686926e+01 -1.674566840847480762e+02 4.075965835518355220e+02 5.375732090636606699e+02 1.067300369105308704e+02 -1.289722781935309204e+00 -3.795099163577679491e+01 -1.382027443671844367e+02
-2.189269053567086232e+01 -1.777636132512505185e+02 -1.559768400304064642e+02 1.010041935966738578e+02 6.501948436093628914e+01 -1.658228515625514206e+02 4.102374031555748957e+02 5.408321242738669525e+02 1.071449063309212022e+02 1.430893899132630077e-02 -3.789042218554615715e+01 -1.378077482203764816e+02
-2.350842304593291843e+01 -1.796509207792360883e+02 -1.553274553785830392e+02 1.016633008374037104e+02 6.434079618840100068e+01 -1.669222511516131533e+02 4.134869448097811073e+02 5.461372696892419754e+02 1.075004967586521900e+02 -1.742632336965773132e-01 -3.884030069141442709e+01 -1.381958076881872159e+02
-2.560704338257922430e+01 -1.814639555540400977e+02 -1.547798182109899017e+02 1.042478755132593733e+02 6.309381242847810967e+01 -1.676828738683180120e+02 4.162368855759362418e+02 5.506880543186356363e+02 1.097239546138030590e+02 8.881248899901668103e-01 -3.905093341901761050e+01 -1.377883308248091225e+02
-2.755576142768456194e+01 -1.836782253895958945e+02 -1.551758297609523822e+02 1.068132585054425761e+02 6.230987159050722113e+01 -1.681533403511965616e+02 4.195301301247017136e+02 5.568982748246916117e+02 1.114034377084055052e+02 1.600021353483313868e+00 -3.895667616323223115e+01 -1.382648598849787049e+02
-2.905740122976861528e+01 -1.855255309908715446e+02 -1.554217091622316502e+02 1.077388722031572001e+02 6.170240764613322426e+01 -1.691969822005495701e+02 4.215104083128695720e+02 5.618326425002127280e+02 1.137872023397493848e+02 3.694473857680182771e+00 -3.909517152837240417e+01 -1.370297207529819730e+02
-2.750091588074544546e+01 -1.868846032676532332e+02 -1.584333328982385751e+02 1.081673567002394094e+02 6.359972257778778726e+01 -1.718614750266501403e+02 4.236919165376816636e+02 5.671159753377446577e+02 1.146816544484728269e+02 4.750377258286750504e+00 -3.818356616015287841e+01 -1.370801230785582732e+02
-2.607945598908153784e+01 -1.884505238868186723e+02 -1.612907411889071625e+02 1.078850429230565737e+02 6.551122212954325619e+01 -1.739609132038446546e+02 4.247665330822818532e+02 5.704203852377013391e+02 1.159353524766465000e+02 5.872591695171818671e+00 -3.799277798784276428e+01 -1.369005396117112525e+02
-2.530996386133847409e+01 -1.893274240221427078e+02 -1.637332955220009296e+02 1.074657212052376281e+02 6.761151999678794766e+01 -1.771424208461982062e+02 4.258558772666015670e+02 5.726986404559381754e+02 1.160040436207445680e+02 6.075526224287560950e+00 -3.723884232510891934e+01 -1.370792015576794824e+02
-2.416093010960509702e+01 -1.887330130279501077e+02 -1.654838137255893571e+02 1.059393736886606376e+02 6.957994280485920058e+01 -1.766801145011752112e+02 4.260561539002324025e+02 5.737724330294566926e+02 1.153630948663113287e+02 5.243539357086360653e+00 -3.754201637920574797e+01 -1.375347199683308190e+02
-2.321741845049501407e+01 -1.892286914405975153e+02 -1.663383729423923683e+02 1.061951704854162273e+02 7.026070855259381176e+01 -1.773823094468580734e+02 4.259154756773778558e+02 5.748098467246105656e+02 1.140832672174255151e+02 4.896163159146160737e+00 -3.897257528794496295e+01 -1.396528670313284977e+02
-2.292170911773093422e+01 -1.888173952471327937e+02 -1.656319871676867876e+02 1.051033367634845774e+02 6.968090847773470387e+01 -1.765026317775938480e+02 4.267677528570416712e+02 5.757175471409270813e+02 1.133659230621360336e+02 4.438691538315919338e+00 -3.957496807979669029e+01 -1.414946921817621046e+02
-2.241601838456644202e+01 -1.890718356515645837e+02 -1.676096791790247948e+02 1.050015263914273760e+02 7.164986689772233319e+01 -1.788658612538110617e+02 4.271259229774873347e+02 5.774388126229853242e+02 1.120420789983216849e+02 3.013997612769629963e+00 -4.160000038690942858e+01 -1.429407708282768681e+02
-2.101389016114815433e+01 -1.902882340340185863e+02 -1.701412367411666082e+02 1.050027629876082642e+02 7.277914753396306935e+01 -1.794991525988896512e+02 4.268890430141938737e+02 5.803205359541551616e+02 1.120460711284510040e+02 2.477475536866045935e+00 -4.355449038705675946e+01 -1.442497595514253703e+02
-2.108653183828976907e+01 -1.920854728648410230e+02 -1.729019516278625872e+02 1.049101792443821637e+02 7.378280777837282756e+01 -1.817435056649651131e+02 4.271209073803867113e+02 5.832543124545703677e+02 1.119543181873588651e+02 2.893887353903751292e-01 -4.484178589882058930e+01 -1.469196237133929799e+02
-2.083307570005953480e+01 -1.931113407594168336e+02 -1.735562224821575796e+02 1.064042360485648544e+02 7.483263696472799609e+01 -1.833089088605569827e+02 4.268267751325639097e+02 5.871006641559733907e+02 1.119929686793070118e+02 -7.469097432380567003e-01 -4.643852190107345024e+01 -1.468750367605589702e+02
-2.242127202241971062e+01 -1.965773546336272091e+02 -1.750311397987936743e+02 1.085810425178171670e+02 7.442241122177732393e+01 -1.858082869279865577e+02 4.278606711844069537e+02 5.903810456386920578e+02 1.127042281047682195e+02 -1.231029412706215354e+00 -4.739494624830805947e+01 -1.472099077051343841e+02
-2.475707195144609685e+01 -1.990853211499641873e+02 -1.754116989262916775e+02 1.112458217610546285e+02 7.360588915011850020e+01 -1.872578202702073327e+02 4.280194340740429766e+02 5.933782485935104205e+02 1.131318844743379231e+02 -1.030368969784360711e-01 -4.595571038500183647e+01 -1.461221540089399298e+02
-2.440458019628277953e+01 -2.019266261421910826e+02 -1.784526977218151274e+02 1.130919939947646782e+02 7.570869889134377217e+01 -1.898432247682122238e+02 4.280043969761313178e+02 5.949180970783155544e+02 1.135579677380257380e+02 2.575739579761719689e-02 -4.619443704561847142e+01 -1.453880291400886335e+02
-2.314487676370513825e+01 -2.025654513849645468e+02 -1.805088616102084131e+02 1.129059630725859336e+02 7.664337827356280286e+01 -1.912255707889749203e+02 4.280100504084902582e+02 5.957631629894002572e+02 1.143729425330914893e+02 -6.383377292531123848e-01 -4.511744708940387483e+01 -1.439780524078414885e+02
-2.168560471696862280e+01 -2.033846973427146736e+02 -1.820085793172603132e+02 1.124489635016593638e+02 7.860079381041897761e+01 -1.933353895865549816e+02 4.274078396697175890e+02 5.954418954354611060e+02 1.129603628802586286e+02 -1.888050337431168124e+00 -4.496792295598735478e+01 -1.447645616663546377e+02
-1.918659454359103478e+01 -2.019940553864860533e+02 -1.818827735763099156e+02 1.110485836958552284e+02 7.982650953947839412e+01 -1.918530319763422369e+02 4.254233044181363539e+02 5.946908047621381002e+02 1.132051759798694519e+02 -2.650266612525301824e+00 -4.563792299934914354e+01 -1.457349161693112762e+02
-1.903425883138477914e+01 -2.015118382370855272e+02 -1.821775353431655446e+02 1.103965737567079799e+02 8.012947651202298971e+01 -1.924081374757878677e+02 4.235752131949959107e+02 5.953329792858969540e+02 1.120957154756612226e+02 -3.871764896080898133e+00 -4.688803256947466735e+01 -1.467886841250901853e+02
-1.834909264408466711e+01 -1.993764054657422378e+02 -1.811878444085675142e+02 1.091193284922555193e+02 7.980921514420572294e+01 -1.902083105502827607e+02 4.207253097817069261e+02 5.939841019835145062e+02 1.120349984211194396e+02 -4.695131312841671622e+00 -4.763313046545906104e+01 -1.478187115340447235e+02
-1.650766653882239865e+01 -1.969365329390050761e+02 -1.802942165202933325e+02 1.077463292602876948e+02 8.088640234929356154e+01 -1.895300210894648956e+02 4.177180196076173502e+02 5.942166847068792777e+02 1.119382221257490357e+02 -5.208793694593373047e+00 -4.893183025510273154e+01 -1.474486080392566123e+02
-1.450285021186521028e+01 -1.935852217401948110e+02 -1.792230508083179643e+02 1.046453453449898205e+02 8.093163687405655082e+01 -1.866188431546056563e+02 4.147211983802442319e+02 5.925189097629940989e+02 1.120620306426190353e+02 -4.793012413106065850e+00 -4.896995433244296692e+01 -1.460636797721549272e+02
-1.180957766896341887e+01 -1.896071145370078739e+02 -1.776038744275683712e+02 1.011674646193600182e+02 8.174480696448597428e+01 -1.839153842113147164e+02 4.111494786997876076e+02 5.899428885287635467e+02 1.119758202724442242e+02 -5.256239514389148937e+00 -4.903530065960168827e+01 -1.454232895073779730e+02
-8.696720687237709413e+00 -1.837614354896550992e+02 -1.759307796349121986e+02 9.678352533771307264e+01 8.269140839877567828e+01 -1.803989392787480028e+02 4.061314427985378757e+02 5.852676942326061180e+02 1.113990356486510080e+02 -4.077108360069853887e+00 -4.900454732219512266e+01 -1.434982832199329721e+02
-5.126170485179367908e+00 -1.808746489057503481e+02 -1.767468889008688393e+02 9.310405579785772545e+01 8.447266294303742029e+01 -1.793322522652350415e+02 4.013987115440759226e+02 5.796503175292261858e+02 1.101070952791416886e+02 -4.047690976137492846e+00 -4.836897363924874327e+01 -1.408053762497444268e+02
-8.045822143123533277e-01 -1.775689505020133936e+02 -1.778059789700803037e+02 8.944943910904429174e+01 8.651483909441878950e+01 -1.780726199854120182e+02 3.947504807470663764e+02 5.720228619042737819e+02 1.093619923627567943e+02 -3.934065168507486554e+00 -4.714162409938526110e+01 -1.383293120918984584e+02
2.253444384207031082e+00 -1.748592891250278569e+02 -1.780411799738482159e+02 8.703958987793497215e+01 8.855976184147094443e+01 -1.775207429486239050e+02 3.877928992506168129e+02 5.639323294493333378e+02 1.081647401672282456e+02 -4.036512720386205899e+00 -4.633439321228367902e+01 -1.360106371522315953e+02
5.269578226181900860e+00 -1.717527751274676859e+02 -1.781339491736028435e+02 8.280993686490946004e+01 8.986680990499664290e+01 -1.747516296285265867e+02 3.794069908285741235e+02 5.554567988498014302e+02 1.067359844321860862e+02 -4.572982403186248490e+00 -4.514794496743279240e+01 -1.324432382717378687e+02
8.310852517015833385e+00 -1.668309805777109318e+02 -1.759414733355177418e+02 7.919870861430834452e+01 9.006753692616102569e+01 -1.711720179829368078e+02 3.695285665707581302e+02 5.447352792053080748e+02 1.036951420273435218e+02 -5.926940313399716942e+00 -4.487789894443689320e+01 -1.306686129427153844e+02
1.053360712816583700e+01 -1.607924273777032056e+02 -1.732604389892474899e+02 7.471636994523784381e+01 8.988529871742207433e+01 -1.667719261110894138e+02 3.582474590150435461e+02 5.338432090495657576e+02 1.001909058594343094e+02 -6.544998501628937149e+00 -4.583121022050192295e+01 -1.277349345298657965e+02
1.314358620380181364e+01 -1.572177224585138333e+02 -1.716110527429815988e+02 7.192421837691865960e+01 9.077376455149828871e+01 -1.637968672094635849e+02 3.451185400118851589e+02 5.213600474093507273e+02 9.580509101856797827e+01 -8.556222711541865422e+00 -4.536221676795204871e+01 -1.241816514028874394e+02
1.575319942706962628e+01 -1.533930289848841539e+02 -1.700982449779682213e+02 6.844756481772938628e+01 9.108511464643923716e+01 -1.612871271317908679e+02 3.324893576871604637e+02 5.082726699902193559e+02 9.222974307898647339e+01 -1.047429354437285376e+01 -4.485177629893253481e+01 -1.193132260114590082e+02
1.667014946035755685e+01 -1.510919343737559473e+02 -1.686817188868266157e+02 6.734058191908343360e+01 9.097674719581711145e+01 -1.597061030518754876e+02 3.177611817384652113e+02 4.940352808420455517e+02 8.717418212922260068e+01 -1.188294701257986219e+01 -4.448778101004043606e+01 -1.129760657873514589e+02
1.782532619177215949e+01 -1.474217513709191962e+02 -1.670702556553144120e+02 6.549486070387550285e+01 9.042705112901673203e+01 -1.573260521925831767e+02 3.034967726401355890e+02 4.780536801175691721e+02 8.236137147788549839e+01 -1.322041517912937891e+01 -4.306510050275394264e+01 -1.056427757027813641e+02
1.868198932928135747e+01 -1.451356511415866350e+02 -1.651736229689343247e+02 6.359851503710522280e+01 8.903776947044369194e+01 -1.551424498742589435e+02 2.889946802047314804e+02 4.608879391768573441e+02 7.718476389497067203e+01 -1.579764418452583641e+01 -4.241339075971959005e+01 -9.827780960082894524e+01
1.976216827258079789e+01 -1.407917999300236715e+02 -1.614281494745395662e+02 6.080816509233497413e+01 8.913594747630534698e+01 -1.507496499972653226e+02 2.730817822433438664e+02 4.417157753914505065e+02 7.230780087923776023e+01 -1.653916155496975904e+01 -4.112390600922441308e+01 -8.983881478906000950e+01
2.133168401762685562e+01 -1.372717835220721554e+02 -1.590430242778227523e+02 5.773327516946732629e+01 8.817981426078137019e+01 -1.479254070164929260e+02 2.571101866333573867e+02 4.230278626390146428e+02 6.789972676849230027e+01 -1.857612910464123246e+01 -4.033198787210819347e+01 -8.220118590121958846e+01
2.362257275599180417e+01 -1.327847513121812426e+02 -1.561022374959569845e+02 5.486533370990353120e+01 8.799656455246774556e+01 -1.445800290615435983e+02 2.411023851964565381e+02 4.036907104670318063e+02 6.353031565062746466e+01 -2.036228686897379703e+01 -3.979536237878838278e+01 -7.451648410511927523e+01
2.531971034755779115e+01 -1.292704655207932944e+02 -1.549317286752255143e+02 5.102293468767028628e+01 8.789512544477521772e+01 -1.419933444365537412e+02 2.256865407294447152e+02 3.857430837333515115e+02 5.808869247042601103e+01 -2.262116750421117573e+01 -4.017300669428956894e+01 -6.808707465190317976e+01
2.821589515409803894e+01 -1.248494265647463806e+02 -1.520347472972943592e+02 4.772891222400570399e+01 8.879227549686851262e+01 -1.385364846581355494e+02 2.117606647076226807e+02 3.675182511293511993e+02 5.346327120777006314e+01 -2.432811185647020125e+01 -3.984443411997174422e+01 -6.050990474155174326e+01
3.126316407705692058e+01 -1.206383805311321282e+02 -1.517160899024071625e+02 4.419037966278771279e+01 8.898788440009705880e+01 -1.360865072552955723e+02 1.968103048435923483e+02 3.505217091396048659e+02 4.871976143580168639e+01 -2.664301754574121617e+01 -4.014095382652586608e+01 -5.473549926277431155e+01
3.351910774727299724e+01 -1.150008828753900900e+02 -1.485253187803326682e+02 3.996733878547848917e+01 8.970470474936153948e+01 -1.318705163844745982e+02 1.833350728779363692e+02 3.327332555468869941e+02 4.542653132117634129e+01 -2.828811822709707258e+01 -3.987598069262745781e+01 -4.838371650553597902e+01
3.608143125866543244e+01 -1.106297516480494352e+02 -1.467616846711173650e+02 3.605573816753148009e+01 9.011245702362464272e+01 -1.282844485768901279e+02 1.697811999011400133e+02 3.153096228803858594e+02 3.999317413080251526e+01 -3.071362829298749730e+01 -4.009686363028420431e+01 -4.278445896900645806e+01
3.874295989375858085e+01 -1.049829425493933428e+02 -1.436347483798043640e+02 3.270031420064269412e+01 8.998282724053450465e+01 -1.237565931884590640e+02 1.567738699432619001e+02 2.992597229029288428e+02 3.687334169376239146e+01 -3.162424346958157884e+01 -3.997135607998618667e+01 -3.637762942309471015e+01
3.967711126211441552e+01 -1.012236465557534615e+02 -1.410445940623644390e+02 2.975484219525287344e+01 8.939593016659739533e+01 -1.209994269292285765e+02 1.466784387032503503e+02 2.831407089818627583e+02 3.361714527690283916e+01 -3.288397197265585703e+01 -3.937550226532712117e+01 -3.081939718127351924e+01
4.022192309308659475e+01 -9.744780711268799678e+01 -1.374131092061106756e+02 2.806968576468559107e+01 8.818523369442173987e+01 -1.174709478571775207e+02 1.371910695487295300e+02 2.685481641391509697e+02 3.159735554186811868e+01 -3.354701581897812446e+01 -3.881634243455552280e+01 -2.436335459046551932e+01
3.976787343208204106e+01 -9.568128010648935344e+01 -1.364797931261399526e+02 2.733768707954284238e+01 8.731270218262535820e+01 -1.163600783916721895e+02 1.291603224457439580e+02 2.554421088988933093e+02 2.943729061313149487e+01 -3.498983727258170973e+01 -3.857186320379698685e+01 -1.888549494267816797e+01
4.032851284842561057e+01 -9.399428000137730521e+01 -1.338225455963711852e+02 2.687885476049832789e+01 8.629118181788018660e+01 -1.145849126843843493e+02 1.217044495818673226e+02 2.431462091430379076e+02 2.765599281539008558e+01 -3.482342685718065667e+01 -3.696018211382770602e+01 -1.224171999897687435e+01
3.845705464857815770e+01 -9.297710159918096906e+01 -1.308778440057842829e+02 2.644288339819235389e+01 8.464081346711887477e+01 -1.119288264948542775e+02 1.150855236478794978e+02 2.312810297339690635e+02 2.541571239007344118e+01 -3.581090707388963779e+01 -3.714966327635622179e+01 -8.192180286655240451e+00
3.726342818822680414e+01 -9.003016935110258601e+01 -1.276958493657974856e+02 2.573827691052472844e+01 8.250566202520566605e+01 -1.092361309507958254e+02 1.076518266760345455e+02 2.197854053621522326e+02 2.367458074448320815e+01 -3.655084153007364733e+01 -3.683364312186679257e+01 -3.879716490942160867e+00
3.621689653104206741e+01 -9.027067226057206994e+01 -1.254561922514381678e+02 2.619808587492072149e+01 8.047626982497816073e+01 -1.084281726335626530e+02 1.018121938989571191e+02 2.097667862383597708e+02 2.141924750309040704e+01 -3.854538891877471229e+01 -3.717427188100260338e+01 -9.088994867486823725e-01
3.586370198788908681e+01 -8.906288726546991086e+01 -1.247519140760186218e+02 2.587457271222581667e+01 7.979411554952363872e+01 -1.070564895765106286e+02 9.481257810456233415e+01 1.996778250297518298e+02 1.964393270169841799e+01 -3.975245593426519264e+01 -3.681217054505206221e+01 2.307739314526126240e+00
3.674288956158844144e+01 -8.911336106298512050e+01 -1.252579980699414932e+02 2.552708037584437406e+01 8.014261042489495424e+01 -1.070911884072632745e+02 8.867164691114420805e+01 1.903374803664522403e+02 1.801249908339702799e+01 -4.071676883204106190e+01 -3.723598423880895325e+01 5.011899622864706139e+00
3.706571774605631475e+01 -8.838505240053306977e+01 -1.241983236324266073e+02 2.406604799126391114e+01 7.991114491754096605e+01 -1.064133923773043051e+02 8.255202140605339878e+01 1.822496712248408528e+02 1.757779945412045919e+01 -4.177623377163930485e+01 -3.616338294770076800e+01 8.385400124925682874e+00
3.756307673933751090e+01 -8.598879591210501872e+01 -1.228588959449772773e+02 2.346374168471315969e+01 7.954984889402311410e+01 -1.039645950668429037e+02 7.736733663382882753e+01 1.735533752343824574e+02 1.536296652490874060e+01 -4.204567293003091066e+01 -3.592753823608023112e+01 1.036858352434826358e+01
3.832896159501505196e+01 -8.335995243239446495e+01 -1.196799132480554420e+02 2.211916500048776868e+01 7.745748372676005999e+01 -1.013681229748089407e+02 7.282453850268795748e+01 1.650444398763772256e+02 1.434328070504470531e+01 -4.258922080714561531e+01 -3.666790136712364045e+01 1.254344488729542562e+01
3.711096381402537503e+01 -8.107079580974642852e+01 -1.170558063079282505e+02 2.139030400079831651e+01 7.569114936012077521e+01 -9.911465135582282926e+01 7.109652843048974091e+01 1.578949651583193656e+02 1.320213870924796851e+01 -4.325609513976525022e+01 -3.717083458543371677e+01 1.432972956476131010e+01
3.653065607510545476e+01 -7.875475063836486811e+01 -1.135143964955189091e+02 2.071935310694321686e+01 7.337405480575239380e+01 -9.612828586042323309e+01 7.091032539328601558e+01 1.520974473789239880e+02 1.229322519225756416e+01 -4.276270465561746192e+01 -3.690628145135182336e+01 1.654310748767780126e+01
3.439592000835725827e+01 -7.930352076008128392e+01 -1.123706975231229137e+02 2.179003855998918482e+01 7.236599288881308212e+01 -9.554259626619585788e+01 7.166967025102832167e+01 1.487698144466149017e+02 1.238464485665605963e+01 -4.327407248856668787e+01 -3.651059921464957370e+01 1.834476518722475546e+01
3.339145490079651069e+01 -7.873700026124289764e+01 -1.105748573099598815e+02 2.270863501016575725e+01 7.061984272910987670e+01 -9.399072293347258267e+01 7.272436428063171832e+01 1.464455519194729902e+02 1.403794806782120830e+01 -4.215843112618611599e+01 -3.508976836922148834e+01 2.046153896359810176e+01
3.153260590057284318e+01 -7.870426206353452869e+01 -1.086060478764070893e+02 2.307503657421908727e+01 6.850987802550376671e+01 -9.364743393322812892e+01 7.373174639150458631e+01 1.451778711387380270e+02 1.431875617395634848e+01 -4.144054008630338615e+01 -3.446395958989503328e+01 2.301596248432912972e+01
3.020831695253005478e+01 -7.687374965514135283e+01 -1.065292803140038274e+02 2.362246321941108818e+01 6.717899689442933209e+01 -9.129993857701033733e+01 7.466768123245347510e+01 1.449919445835214162e+02 1.678839140783200889e+01 -4.011343320594817641e+01 -3.311838078637769911e+01 2.566739616266986701e+01
2.934158233375138991e+01 -7.673782640018166035e+01 -1.045880174716701276e+02 2.360189294027157203e+01 6.639083907226304859e+01 -9.046467116693921184e+01 7.581999769593082306e+01 1.444173224681856311e+02 1.684414046722396918e+01 -3.947894591960952226e+01 -3.244538250376428579e+01 2.726217720145200119e+01
2.819524945439386698e+01 -7.469152744706131841e+01 -1.030950901175903027e+02 2.256249897321757913e+01 6.514261454652458383e+01 -8.898759440099493645e+01 7.601953789254558558e+01 1.432028294528441563e+02 1.783566889868685124e+01 -3.807193741672953280e+01 -3.114667130976945231e+01 2.901246509277631702e+01
2.797512158947035488e+01 -7.660451486934978504e+01 -1.029584716634198003e+02 2.393947393423492542e+01 6.499923959579150790e+01 -8.971311746442941626e+01 7.606049578706148395e+01 1.423435445495204590e+02 1.795780794915965828e+01 -3.755327514918937482e+01 -3.038927089957417493e+01 2.945161891989062042e+01
2.746262410247163643e+01 -7.763679874051270247e+01 -1.036372721975535711e+02 2.448069057582798536e+01 6.496510930214618895e+01 -9.069352467786295335e+01 7.536371868990927680e+01 1.413002188884413783e+02 1.813807794886735891e+01 -3.590435988320867722e+01 -2.972366819147296013e+01 3.050261887244933945e+01
2.608244999925449648e+01 -7.828269581789280096e+01 -1.041636976892932438e+02 2.594258576020689588e+01 6.507077013094770734e+01 -9.118548388730260967e+01 7.425906422411971164e+01 1.396915325690396799e+02 1.728608495040882076e+01 -3.686664264808014480e+01 -3.074995976615198146e+01 2.838808502086526886e+01
2.653890223811497151e+01 -7.773033896506905194e+01 -1.044075172097823412e+02 2.602834725655005954e+01 6.482971859273145299e+01 -9.083726364599229441e+01 7.330388838799373730e+01 1.380079677598218382e+02 1.632485685687928978e+01 -3.687722081018675624e+01 -3.224121656949884596e+01 2.689638386870187858e+01
2.843173433278832363e+01 -7.780961846003144444e+01 -1.060166756583410859e+02 2.483855205403540012e+01 6.630378102440850796e+01 -9.114021438839188249e+01 7.231006063028004860e+01 1.381430130106029424e+02 1.529972448875888524e+01 -3.774299998211179030e+01 -3.402656173174425902e+01 2.364428424600553669e+01
2.981235291888928174e+01 -7.512847794596986262e+01 -1.058483984840274843e+02 2.294577551534141691e+01 6.797054993561900460e+01 -9.092143497072977709e+01 7.122358220387646099e+01 1.372739691280102079e+02 1.371139626459335226e+01 -3.858705401526536605e+01 -3.435432213538305035e+01 2.177614003638100826e+01
3.066028697864890162e+01 -7.525806101887100397e+01 -1.061813474816576530e+02 2.257939241791505935e+01 6.790125508698697843e+01 -9.047874146629945358e+01 7.093581064385877255e+01 1.368259380328910026e+02 1.203150055632183957e+01 -3.991871672110291058e+01 -3.664067619044098478e+01 1.877161041347521220e+01
3.122563386151403719e+01 -7.403579875185937453e+01 -1.057954663091765468e+02 2.152119442642831970e+01 6.818382932265006957e+01 -8.970092149689830308e+01 7.099344799793414040e+01 1.377585021781963519e+02 1.156126953690855608e+01 -3.984531775452896341e+01 -3.758900789788377494e+01 1.661030070966245731e+01
3.026613584614394981e+01 -7.470762365221754919e+01 -1.062402291638290421e+02 2.302221931701757285e+01 6.719178825724509352e+01 -9.022593100925399767e+01 7.155462361064770960e+01 1.380010977913700572e+02 9.959478687711833089e+00 -4.083327434564554181e+01 -3.888043898874055770e+01 1.452333555750275096e+01
2.933644425076337825e+01 -7.562246364541405796e+01 -1.056731663544730679e+02 2.328142020360719755e+01 6.705479653497594938e+01 -9.031481025382515782e+01 7.283680229321841182e+01 1.390747785656033955e+02 1.069303953024693676e+01 -4.043179879654204001e+01 -3.900545259657705799e+01 1.314543424670519300e+01
2.828686299937114157e+01 -7.678526653714126837e+01 -1.069825071713025011e+02 2.577071266778083114e+01 6.629775852004564740e+01 -9.210134380818769273e+01 7.350306686111264298e+01 1.422021271073944888e+02 1.218129350579559045e+01 -3.923892318962607106e+01 -3.848529782287567258e+01 1.351770987944482805e+01
2.725384705091299864e+01 -7.767308163694653445e+01 -1.062662114213422768e+02 2.587798809305744285e+01 6.593904760118968511e+01 -9.176990240801389120e+01 7.549564209121675162e+01 1.449680932770161519e+02 1.462296621449725187e+01 -3.835165402922261535e+01 -3.713251565288855005e+01 1.482006787898826694e+01
2.694762248515109704e+01 -7.769017875393360839e+01 -1.055029080817592302e+02 2.625776211303605123e+01 6.550283026682755860e+01 -9.182642986966962440e+01 7.666254187465246162e+01 1.482513555490282329e+02 1.612004902696783049e+01 -3.721983278592784927e+01 -3.645962851776039315e+01 1.563834068112102038e+01
2.647736386380860196e+01 -7.543782583120234619e+01 -1.030043155476137855e+02 2.511205192598485070e+01 6.364481548372609865e+01 -8.866429297246970975e+01 7.834915337978029015e+01 1.503827817159145184e+02 1.877414932448847296e+01 -3.693419883876482146e+01 -3.558289470451286718e+01 1.619106945115296980e+01
2.518624170187988298e+01 -7.376229274732712327e+01 -9.987712905311711609e+01 2.513296441093870826e+01 6.151496296171305289e+01 -8.678478533458211075e+01 7.984812151086785548e+01 1.524160475661829253e+02 1.889110693552148490e+01 -3.699845772166888480e+01 -3.751251508813686542e+01 1.588789664068122676e+01
2.437334279230385903e+01 -7.196421182906981073e+01 -9.739984451135825338e+01 2.425756032364463977e+01 6.030076946822803308e+01 -8.432217491384295727e+01 8.057803728252437736e+01 1.543477408404858977e+02 1.924034213073515076e+01 -3.753935281948335501e+01 -3.867839641044679411e+01 1.556161949063601391e+01
2.375345744477296250e+01 -7.212314309737634233e+01 -9.682195339706450454e+01 2.388012253929394291e+01 5.914536927358093976e+01 -8.392740635172633290e+01 8.179190794182599689e+01 1.564190729676658407e+02 1.813876147096435432e+01 -3.884126230792675472e+01 -3.973875379756903925e+01 1.409180079505389926e+01
2.470459079406430902e+01 -7.236069718035514597e+01 -9.810588620865458154e+01 2.465522426024838509e+01 6.005891276208206619e+01 -8.502065346151844949e+01 8.258812373659579009e+01 1.583424801088201264e+02 1.807921477978599256e+01 -3.907299366356383530e+01 -4.065929424027163464e+01 1.351094034402377098e+01
2.617794487394398573e+01 -7.447211991440981649e+01 -1.016591161398375789e+02 2.517725730526131755e+01 6.310917139841360779e+01 -8.824598839263124717e+01 8.380374033597733785e+01 1.604113158111687767e+02 1.781636004806676254e+01 -3.839710297128804228e+01 -4.123873108584867708e+01 1.212330773716091592e+01
2.859527256329034728e+01 -7.682674632057488395e+01 -1.058554993844669099e+02 2.486455283207869016e+01 6.609270589277647900e+01 -9.084554113448396606e+01 8.452092575752682535e+01 1.623427777029346544e+02 1.874783591137060057e+01 -3.730930663383063717e+01 -4.026003227170200915e+01 1.148786818607566751e+01
2.962749325645798848e+01 -7.975812503858500691e+01 -1.090985462431125796e+02 2.507892853582908899e+01 6.845179833233960665e+01 -9.432139478550575973e+01 8.638873619318349029e+01 1.643996908598130631e+02 1.956920645872944675e+01 -3.573579085623754992e+01 -3.937657411991462197e+01 1.016109237672372245e+01
3.079360958407713866e+01 -8.098829246310434371e+01 -1.121197378329618459e+02 2.545349150231878355e+01 7.043032687756759458e+01 -9.629969872758893246e+01 8.831233928518408050e+01 1.663466196813019735e+02 2.084175081944234265e+01 -3.407702835912152750e+01 -3.826888915952799408e+01 9.407457178457844904e+00
3.109876652805050412e+01 -8.381298682015314228e+01 -1.139669373819854030e+02 2.688164497494861394e+01 7.122084949111558672e+01 -9.794877655975055575e+01 9.045431568412176659e+01 1.683840156484126567e+02 2.147968412889775536e+01 -3.352737044579018999e+01 -3.729945236124812169e+01 8.792174105362013492e+00
3.038870271349331276e+01 -8.432349056093062245e+01 -1.139464355449929371e+02 2.750442425838533111e+01 7.089470642370810083e+01 -9.842763812866157025e+01 9.223705601094494000e+01 1.703558877607807744e+02 2.297681300314185648e+01 -3.207640908431999094e+01 -3.691546737946131174e+01 8.670905758518845374e+00
2.931943526443863490e+01 -8.666376256433569836e+01 -1.140364868416894950e+02 2.881636508635733307e+01 7.055614118916271593e+01 -9.993366911417659537e+01 9.457844492007647830e+01 1.723601160049808527e+02 2.277597222439099767e+01 -3.207389287149459989e+01 -3.649534885137974527e+01 6.948599811269791537e+00
2.778198670202898057e+01 -8.742886034547701968e+01 -1.140292460155236682e+02 3.004825444192658068e+01 6.912075727704595351e+01 -1.004525172059519491e+02 9.552872845700156290e+01 1.743792635332430905e+02 2.385883885965484197e+01 -3.190312590269025605e+01 -3.568150111287872051e+01 7.234105916397555625e+00
2.555190619860239565e+01 -8.955311787085469177e+01 -1.133981387790807389e+02 3.269805269801184977e+01 6.851607068799597755e+01 -1.014256623119664624e+02 9.750028028343773201e+01 1.763076012556678336e+02 2.386169668185512549e+01 -3.210282965561453494e+01 -3.634186823805743671e+01 6.245337309871321629e+00
2.366769567865075530e+01 -9.057246737081281651e+01 -1.127989137627399856e+02 3.348305137933232345e+01 6.708853293870635071e+01 -1.005141142138704424e+02 9.807538742505242624e+01 1.784815816805343900e+02 2.476744672564114325e+01 -3.189630074841648977e+01 -3.509467498212334391e+01 5.371703993090824802e+00
2.216262412869174270e+01 -9.189095096441550936e+01 -1.131536633432300221e+02 3.496353263635212727e+01 6.707272616813001775e+01 -1.020844667771406193e+02 9.853078868146252489e+01 1.796366860731979784e+02 2.499923677017498491e+01 -3.210201976411304514e+01 -3.514224787248917181e+01 4.825400323388355339e+00
2.140708431939755130e+01 -9.188269887019207260e+01 -1.128758814399715362e+02 3.480232331238785548e+01 6.689229871338299915e+01 -1.016309747872008273e+02 9.974231703730906418e+01 1.813245343301854291e+02 2.508464186051959999e+01 -3.190181547831604192e+01 -3.427400369723601870e+01 4.637212274484390662e+00
2.076146555429118834e+01 -9.265705195876319067e+01 -1.130725107058925261e+02 3.579464414368395353e+01 6.713743088640893575e+01 -1.030256518405242900e+02 1.006649015087640890e+02 1.827733919436103633e+02 2.481647872777474362e+01 -3.209151603045913248e+01 -3.390533889159669911e+01 3.047853930811298184e+00
2.124265024412699887e+01 -9.367856319539858134e+01 -1.134342062310442429e+02 3.597627913520229725e+01 6.679489674013795764e+01 -1.026262841481992467e+02 1.015906878205213104e+02 1.841194553423424907e+02 2.577684853105504814e+01 -3.192020080334596699e+01 -3.412029833661214440e+01 2.595988527823346104e+00
2.027274972737632197e+01 -9.457403541936056968e+01 -1.149027212743645521e+02 3.650806078836685487e+01 6.776998452953179708e+01 -1.045334199365192944e+02 1.033457538285661315e+02 1.865721936045955545e+02 2.596852869171975087e+01 -3.205627065669194309e+01 -3.332575422813202692e+01 1.058864605196017550e+00
1.938448210103373981e+01 -9.682781833274225392e+01 -1.153767423732078754e+02 3.836503315998270836e+01 6.802019644214362870e+01 -1.054730450843808995e+02 1.047295473638497896e+02 1.875904892762171983e+02 2.658134764086773671e+01 -3.200900327463845940e+01 -3.288616596859269947e+01 6.084741901944196174e-01
1.833397966981508631e+01 -9.962022998092820103e+01 -1.175587276816754780e+02 3.973193847502770382e+01 6.806353867493550069e+01 -1.075193271913453259e+02 1.062069566189121019e+02 1.892496990614017420e+02 2.774645066468246668e+01 -3.143236967831171569e+01 -3.301873252152318372e+01 -9.718550850296104882e-01
1.677516821844323403e+01 -1.011358793182458555e+02 -1.180747406616167012e+02 4.119254267013838700e+01 6.742378510610035391e+01 -1.085341711643909264e+02 1.079271512970783391e+02 1.914555221285099833e+02 2.811839817066951852e+01 -3.076909554059919572e+01 -3.351611392360771902e+01 -1.296270492314227862e+00
1.509070127617618162e+01 -1.030574313194447029e+02 -1.180161427970932948e+02 4.292903197159628803e+01 6.625826234692692651e+01 -1.099929907675021923e+02 1.084026863996401602e+02 1.926901831470256639e+02 2.787957071308255408e+01 -3.119129306340525787e+01 -3.476013749195864477e+01 -3.606125812980258694e+00
1.453542039373848027e+01 -1.028114219755637038e+02 -1.175247031860336620e+02 4.345203932115956746e+01 6.545645079103235275e+01 -1.092215232805825309e+02 1.104508117880703395e+02 1.937434783369825766e+02 2.817006308758522692e+01 -3.080184668529565428e+01 -3.562366197571089543e+01 -4.477917688540421715e+00
1.315043197491331917e+01 -1.032020979984243638e+02 -1.156266983056207067e+02 4.485616233006835074e+01 6.367283643939426696e+01 -1.091059825808681438e+02 1.117010246929921067e+02 1.940051468172511875e+02 2.732327548953940877e+01 -3.162519326734863867e+01 -3.661430810262636726e+01 -6.392216725395464927e+00
1.251504005055241819e+01 -1.027989798968464754e+02 -1.142523686950105315e+02 4.548478127955652184e+01 6.219404846962346056e+01 -1.082631570828642111e+02 1.126374534509607344e+02 1.945889923817680369e+02 2.638488016108436796e+01 -3.322983335576708441e+01 -3.830167406284108722e+01 -8.224412103188187828e+00
1.116193767818337612e+01 -1.031775487927021260e+02 -1.133338264389323626e+02 4.683011747589321061e+01 6.145493030271162382e+01 -1.079989609306722684e+02 1.137408517078103358e+02 1.951732945527217566e+02 2.527387650589203361e+01 -3.489274244788025214e+01 -3.973584716667573247e+01 -1.042486478789405702e+01
1.051680720453519235e+01 -1.032508710611076168e+02 -1.128650036803173720e+02 4.750256001126843586e+01 6.018914385611887496e+01 -1.078776741664163126e+02 1.140399159848797694e+02 1.949322321364749371e+02 2.441302542899217087e+01 -3.547795734922929967e+01 -4.119987027365070986e+01 -1.227397072018213109e+01
9.156531329370078964e+00 -1.055986208451117960e+02 -1.130625191678087589e+02 4.880631689046452237e+01 5.998427847803692003e+01 -1.086717057794202788e+02 1.144855405415837026e+02 1.945176094288608226e+02 2.326014593799215646e+01 -3.681006708478667377e+01 -4.285907983973211088e+01 -1.382429782289602826e+01
8.541228245494355775e+00 -1.064685626751615928e+02 -1.133959799125428276e+02 4.952810928767368637e+01 5.995686600519574938e+01 -1.095350758613405446e+02 1.157914117298111165e+02 1.936683884999903569e+02 2.242505597673818940e+01 -3.756596654944738845e+01 -4.359293147111701217e+01 -1.504183580396963649e+01
7.093210947302665659e+00 -1.084108571709814157e+02 -1.154036761976697534e+02 5.075837984539889902e+01 6.051424819845373548e+01 -1.113389115080405816e+02 1.165391372749847108e+02 1.943709474150260803e+02 2.126282626197685843e+01 -3.824989630070680136e+01 -4.413058846230843102e+01 -1.711953562321202682e+01
7.087930419534756332e+00 -1.097068394958138953e+02 -1.167478195260204927e+02 5.162853447426281406e+01 6.184184110981615135e+01 -1.127691705603903074e+02 1.177684795824532529e+02 1.930389469073653856e+02 2.039174477447277667e+01 -3.778637845533190642e+01 -4.446776214150370521e+01 -1.670067301319731712e+01
6.876975818153435505e+00 -1.105811707985151884e+02 -1.175201166840739404e+02 5.212515312451539984e+01 6.191604405026140512e+01 -1.135324742807378158e+02 1.185425204857069161e+02 1.937167415797109413e+02 1.975987662581599835e+01 -3.819823983218022789e+01 -4.528483295973536826e+01 -1.780039744012623615e+01
7.139165692889485548e+00 -1.122570503043763352e+02 -1.193338146114493412e+02 5.244694587990375823e+01 6.266983820515422821e+01 -1.152895254902921636e+02 1.197711263694051240e+02 1.939824944008717011e+02 2.027854107730450295e+01 -3.781087523974741771e+01 -4.479174871609034625e+01 -1.848026566296403317e+01
6.849063332911017987e+00 -1.138244065235349183e+02 -1.207307933740904957e+02 5.332512869651414888e+01 6.304523867995038700e+01 -1.168116796730276548e+02 1.205199718308479220e+02 1.945683474589293951e+02 1.918925204843192489e+01 -3.818221978507828851e+01 -4.514866646226352742e+01 -1.982114242961276673e+01
7.162763347627721267e+00 -1.145696301865298352e+02 -1.216897118295770639e+02 5.272786048828721306e+01 6.353379933415431680e+01 -1.175560836890378624e+02 1.218323369591746257e+02 1.956639927206521463e+02 1.903046816952909026e+01 -3.782454839531758495e+01 -4.494454196606813667e+01 -2.053297835659676451e+01
6.822060080510214952e+00 -1.152491126254864895e+02 -1.220614740701100942e+02 5.324427840000350898e+01 6.423907872756828397e+01 -1.183036696447493767e+02 1.219848867358654161e+02 1.967122127163986818e+02 1.890969586135305747e+01 -3.816650356452177562e+01 -4.449294388282945789e+01 -2.124961791984070203e+01
7.202830185556370779e+00 -1.143809768409794287e+02 -1.221073382259871209e+02 5.279565694690348465e+01 6.379554675401394803e+01 -1.172379328273596570e+02 1.220420098106904021e+02 1.970813003485757520e+02 1.915781903074050518e+01 -3.785015093920227969e+01 -4.376186548002749532e+01 -2.124578002400651044e+01
6.736437489263201073e+00 -1.128139577572425480e+02 -1.208380739980424892e+02 5.277642345038494653e+01 6.424209655631094051e+01 -1.165251057338290224e+02 1.219784300393089467e+02 1.969989457683793148e+02 1.834973384938331975e+01 -3.810060714290584372e+01 -4.411822384898268723e+01 -2.304081857040680603e+01
7.761194601126732984e+00 -1.107257649445288337e+02 -1.191923170485984684e+02 5.044331582200999264e+01 6.324496896977653648e+01 -1.147138782712668217e+02 1.215774312181919612e+02 1.965164568520449677e+02 1.739578557109645018e+01 -3.837975507482596527e+01 -4.441921251099328316e+01 -2.318904339679192717e+01
8.468394102093785847e+00 -1.080749539009542843e+02 -1.179354265343948356e+02 4.945899977162191874e+01 6.296331185543792230e+01 -1.126809730659570619e+02 1.200842386233358638e+02 1.952140601586910975e+02 1.629606684450280341e+01 -3.987959240267635153e+01 -4.574692187859094616e+01 -2.565233034676989732e+01
9.901984006052551024e+00 -1.061012151436164714e+02 -1.159801894325536438e+02 4.824098438875699202e+01 6.300204903664272393e+01 -1.112265901971510687e+02 1.201640992036314657e+02 1.945143015477495965e+02 1.542240411703534697e+01 -4.042069669103099017e+01 -4.711110943422224295e+01 -2.634445750483336823e+01
9.867729696000539619e+00 -1.054043308102070853e+02 -1.161479346023377133e+02 4.739574429293458735e+01 6.300443131591702439e+01 -1.103804345670850040e+02 1.192754817836542713e+02 1.931247122161784944e+02 1.429158369244064275e+01 -4.186183796850243510e+01 -4.890482049497409633e+01 -2.853112288533216301e+01
1.025182089210870728e+01 -1.053431492230900659e+02 -1.158240553794520338e+02 4.724915701588206218e+01 6.300429469941467175e+01 -1.102415722150383175e+02 1.189666095913272841e+02 1.931425245975650000e+02 1.339464384526184126e+01 -4.242376804125368039e+01 -4.951715267564231482e+01 -2.945444487917259480e+01
9.179222958977957703e+00 -1.067275948748565355e+02 -1.165829569630202940e+02 4.899630836599755668e+01 6.295306803981886645e+01 -1.124453769195654189e+02 1.189711040589285318e+02 1.922731584400584666e+02 1.276251613110619409e+01 -4.385917356146581625e+01 -5.018562342272386445e+01 -3.138773942530974281e+01
9.132947648407427010e+00 -1.085985249539882318e+02 -1.181592633979535236e+02 4.923540204972462675e+01 6.350693079990406886e+01 -1.141060090591552552e+02 1.190678356760135870e+02 1.920415649992122269e+02 1.328903328071264411e+01 -4.441790841386887934e+01 -5.041251361671442766e+01 -3.269805563727181408e+01
8.270495473981547718e+00 -1.116457162209154887e+02 -1.203334816132417018e+02 5.156022963887221522e+01 6.477813060757748076e+01 -1.164442425355999404e+02 1.188893515356001416e+02 1.913619074460770833e+02 1.214512250712737540e+01 -4.586378550494666939e+01 -5.126518852448665342e+01 -3.313366074089627489e+01
8.049378276702706003e+00 -1.130457139323776090e+02 -1.223282064966256399e+02 5.247313163546328951e+01 6.505357596232106232e+01 -1.181336912052306900e+02 1.191943445722236277e+02 1.909567960122108161e+02 1.258409934105265471e+01 -4.640413740079008420e+01 -5.132805824218356605e+01 -3.331480557473949489e+01
7.362774764150085360e+00 -1.149583634797804308e+02 -1.232733742977200677e+02 5.389766804847906201e+01 6.494772540193226007e+01 -1.200005224215231863e+02 1.182636886909608620e+02 1.904586005111190445e+02 1.316219679532895270e+01 -4.787961033574256930e+01 -5.236817010542091566e+01 -3.499810460602567730e+01
6.940583317398809626e+00 -1.154745700715802883e+02 -1.227966055401667376e+02 5.387578640237658334e+01 6.511404689768714604e+01 -1.198228768882757436e+02 1.180241667052833492e+02 1.898348179859504796e+02 1.286663713099998851e+01 -4.836938848053366513e+01 -5.215607389952630513e+01 -3.475192370094404737e+01
6.517929390985428562e+00 -1.158188279585219504e+02 -1.232010207946631652e+02 5.421206175834117857e+01 6.436299659069003098e+01 -1.202402050919146319e+02 1.174555353428742421e+02 1.896640401045955855e+02 1.318963230343227444e+01 -4.995422284409303160e+01 -5.405798942488560499e+01 -3.578860978864059916e+01
5.659940176555368296e+00 -1.140521966703577448e+02 -1.224081312698234285e+02 5.331474544980650876e+01 6.391162145724521082e+01 -1.193271966089837548e+02 1.163423313221945534e+02 1.880635304812240918e+02 1.227845006055492938e+01 -4.983818412292021094e+01 -5.421449087791985022e+01 -3.597609253918285788e+01
6.820803280421849024e+00 -1.131842188900308486e+02 -1.208821121449739877e+02 5.244842667715884943e+01 6.358852690480681247e+01 -1.180036057851212803e+02 1.153592960141756834e+02 1.881682727673772035e+02 1.202922607580866199e+01 -5.021086216449343453e+01 -5.609714690246773472e+01 -3.605820905633232343e+01
6.892478117888952482e+00 -1.103524470795824897e+02 -1.186382638408927903e+02 5.132911331131850119e+01 6.218967094778699334e+01 -1.154634184268728490e+02 1.144135417350613437e+02 1.873085203721413166e+02 1.138533692123254326e+01 -4.975054112983120547e+01 -5.565828172791277950e+01 -3.597450238813249968e+01
7.677873875000763348e+00 -1.091026773087072996e+02 -1.168157870185977316e+02 4.992896207454138136e+01 6.155858902919714382e+01 -1.140923354021976053e+02 1.132673041577281197e+02 1.869231890699172141e+02 1.095186676587929853e+01 -5.031965790921551474e+01 -5.686059222767958943e+01 -3.556356211633560349e+01
7.996812116930088976e+00 -1.064043562357545198e+02 -1.147098559059428311e+02 4.801869798539305378e+01 6.012180820859162367e+01 -1.108727362999406267e+02 1.129424989273005195e+02 1.870412365365175731e+02 1.042874365784751944e+01 -4.919293653220533002e+01 -5.693925190934697866e+01 -3.425759186226257214e+01
8.591843374747504924e+00 -1.050753784230368808e+02 -1.127089307795250193e+02 4.775518954572856245e+01 6.014911174910578495e+01 -1.088913172293971172e+02 1.130211978920040821e+02 1.869413412050457737e+02 1.030545137229629837e+01 -4.865597036129820907e+01 -5.668529746279649117e+01 -3.302001261575736635e+01
9.048509752373114168e+00 -1.024345639551021776e+02 -1.112832578242581008e+02 4.549480205036459068e+01 5.927628484679512155e+01 -1.064781738156448796e+02 1.129673803896538544e+02 1.874564800191001268e+02 1.180272304408324224e+01 -4.659324299271838044e+01 -5.467188319542700015e+01 -3.054440638463619706e+01
9.924147730561355019e+00 -1.010550290305603198e+02 -1.103471413733305866e+02 4.452669305730880467e+01 5.941295150342340747e+01 -1.055763125794680661e+02 1.134254495229946968e+02 1.892188477593362848e+02 1.291705911415320429e+01 -4.504210857922328159e+01 -5.243340899588482529e+01 -2.854777155966998592e+01
1.244005718662022097e+01 -9.848406182690344224e+01 -1.099548466442561789e+02 4.276985619076949519e+01 6.077137777047791189e+01 -1.036029623963944601e+02 1.152247306366599702e+02 1.912206289673304411e+02 1.590133572877105017e+01 -4.158316277049789278e+01 -4.846305320692664509e+01 -2.428886932959255773e+01
1.448781563949882134e+01 -9.665441447831291555e+01 -1.094719256141119530e+02 4.038079877434149978e+01 6.143896454574726818e+01 -1.025020543077122284e+02 1.176162559146701909e+02 1.936701921049474890e+02 1.931252895223475008e+01 -3.708726083560313924e+01 -4.411361729572718104e+01 -2.080188507722623115e+01
1.862925893235100006e+01 -9.181097358838418643e+01 -1.088779263005387179e+02 3.650162823497468878e+01 6.328682664806659375e+01 -1.003375564779983762e+02 1.215672270945890290e+02 1.974713165238934778e+02 2.349634925304592059e+01 -3.168190432958155967e+01 -3.877339141680281642e+01 -1.578350310300283610e+01
2.231544248836584998e+01 -8.661871555479211793e+01 -1.082076531171696274e+02 3.215844281635953195e+01 6.470939788610343157e+01 -9.663190018680680282e+01 1.252772590440161622e+02 2.014534579010716016e+02 2.843318244826633290e+01 -2.719708586488311042e+01 -3.352394252261950669e+01 -1.105098936973988977e+01
2.663167481599414899e+01 -7.963196800149647459e+01 -1.049974434181416427e+02 2.629480048964578032e+01 6.560145375247152799e+01 -9.201193687034539437e+01 1.302054972583841561e+02 2.055134379884704856e+02 3.440992993274858236e+01 -2.111591861904762624e+01 -2.754575175834013478e+01 -5.770133747379865063e+00
3.030018447667136883e+01 -7.187085890105051078e+01 -1.019355390889787429e+02 1.984379964423776599e+01 6.622478811317094483e+01 -8.644703282992031745e+01 1.344043361512555634e+02 2.093943201250523316e+02 3.929425498078899182e+01 -1.596982149899466386e+01 -2.323165691659201570e+01 -1.013842188176447445e+00
3.465501283847948599e+01 -6.210186621002479512e+01 -9.631270314752067918e+01 1.299149541524086260e+01 6.536482215648207728e+01 -7.979434170510825197e+01 1.390810865769554709e+02 2.135982527797592354e+02 4.565417662995194092e+01 -1.081037927148129185e+01 -1.761351674432338754e+01 3.724267308463804049e+00
3.787559033341668879e+01 -5.382165625005916354e+01 -9.033858840570799487e+01 7.608024271004065753e+00 6.446492166740571861e+01 -7.215228929483636477e+01 1.435425206683688373e+02 2.168488882054155908e+02 4.908408478751001525e+01 -6.081618166380981627e+00 -1.359145829000349970e+01 7.260103268955869105e+00
4.038812538908278782e+01 -4.411147814152887747e+01 -8.432556974413620310e+01 9.981233775438396183e-01 6.287725429192189353e+01 -6.448057281421152709e+01 1.474817543049472306e+02 2.199357984736197693e+02 5.390484243427052036e+01 -7.266191235541350490e-01 -9.991163547663823863e+00 1.124263656914994769e+01
4.212585553193508048e+01 -3.625928495013042152e+01 -7.824298043770532729e+01 -3.935240358830689456e+00 6.068481314791522863e+01 -5.793587670368206943e+01 1.509571216115141965e+02 2.222488564340906407e+02 5.650818855729005463e+01 3.429275274072189017e+00 -6.774756398897371135e+00 1.303765644087160958e+01
4.388710284358466396e+01 -2.833744082033597067e+01 -7.295242089159995658e+01 -8.836936662076460891e+00 5.892570784892264868e+01 -5.043140876627175828e+01 1.534351601253751483e+02 2.243418705947307785e+02 6.031993164124160955e+01 7.120941188180382575e+00 -3.251000869774440805e+00 1.541551803179416602e+01
4.434440870276998936e+01 -2.248450095537839033e+01 -6.736383870712144528e+01 -1.159729666474596144e+01 5.615105101879762373e+01 -4.488581275646200908e+01 1.541184548610995932e+02 2.251972234690580592e+02 6.137905419964853593e+01 9.104482491574895420e+00 -2.234011741115274674e+00 1.705933053372703867e+01
4.593303522469900457e+01 -1.662133525746163087e+01 -6.227650962224437592e+01 -1.516763239843465882e+01 5.367507153265245989e+01 -3.998064630283105458e+01 1.540330868676140312e+02 2.249185391974456536e+02 6.342226680061221344e+01 1.141044650395956594e+01 6.796425704551152247e-01 1.895969997479430802e+01
4.577101528699798649e+01 -1.226944891498611945e+01 -5.871125428715524208e+01 -1.693068055555026774e+01 5.181280859516247972e+01 -3.490535336820957468e+01 1.531465277190116012e+02 2.246672436931113452e+02 6.444908296702877237e+01 1.257959941517379931e+01 1.341515882348847999e+00 1.923943806079066121e+01
4.708548248797006863e+01 -6.706687189904250168e+00 -5.492130416501967716e+01 -2.041167231692522321e+01 5.016518499000559927e+01 -3.050012963468765648e+01 1.497075977126993678e+02 2.227182868687337702e+02 6.628010142238817082e+01 1.364596871289027646e+01 2.868130100348375677e+00 2.139983461867786474e+01
4.964803354336476104e+01 -1.862683663137293166e+00 -5.237312334848267881e+01 -2.430135307771445952e+01 5.001102905917788632e+01 -2.619903133631628833e+01 1.450629623283254546e+02 2.212376197382889700e+02 6.802115362915205310e+01 1.492616944536262658e+01 3.710055370822522569e+00 2.295881380940471317e+01
5.335197120056454168e+01 5.514186152360892379e+00 -4.906043165356668112e+01 -2.895696076352193060e+01 4.994949938017960278e+01 -2.080838104269325228e+01 1.396314935041630179e+02 2.210030027992460191e+02 7.086011646928514551e+01 1.789364020108346054e+01 7.115626344066183329e+00 2.584494396873089883e+01
5.785471246881809293e+01 1.185338273514092755e+01 -4.623454623002262309e+01 -3.440309023261089294e+01 5.041097764069808562e+01 -1.614651839900435704e+01 1.319245673867776532e+02 2.205116141012240689e+02 7.368961691084390964e+01 2.069028894021023746e+01 9.428933418259344279e+00 2.916087990149511455e+01
6.314849863738253788e+01 2.000003868202602320e+01 -4.365608554168315436e+01 -4.120750531845655473e+01 5.224266496068363352e+01 -1.085019622598897193e+01 1.219240746588082374e+02 2.197224010799463088e+02 7.698036525690224607e+01 2.393340495497372089e+01 1.360807233074232592e+01 3.362470639538913986e+01
6.782189976908833273e+01 2.756044896308911873e+01 -4.143510414326626545e+01 -4.822123382689850501e+01 5.366649205811646794e+01 -6.134625111040106660e+00 1.120941563937026189e+02 2.203261063546445371e+02 7.922687679414767103e+01 2.665415217434587092e+01 1.718165857340733282e+01 3.719157332737788124e+01
7.356879667777985787e+01 3.606677624977186980e+01 -3.840680932805006620e+01 -5.470975738025138213e+01 5.498917653100347280e+01 -8.982373687493908632e-01 1.015674692210998700e+02 2.188355897057230379e+02 8.079291568340300955e+01 2.997505591587785645e+01 2.125963505115640118e+01 4.158187407932155111e+01
7.962928276698328034e+01 4.312452496607583186e+01 -3.756043302745518986e+01 -6.093108494430761368e+01 5.737103997273734279e+01 3.955582398459084548e+00 8.985304157862304919e+01 2.168766784459643304e+02 8.144000226710397783e+01 3.223981669034700559e+01 2.291717349959242256e+01 4.525172998338133823e+01
8.509697456151982919e+01 4.985147776992112512e+01 -3.621745351370488919e+01 -6.805172409159824554e+01 5.897361369595255809e+01 8.220232381585580228e+00 7.822944871753387019e+01 2.143287120993668111e+02 8.239767810957781080e+01 3.375522435836401058e+01 2.554977033020646005e+01 4.910000546830699619e+01
8.997367993024029431e+01 5.503689726629379919e+01 -3.594009997687660274e+01 -7.232736047115365352e+01 6.186469551489702923e+01 1.001940130781874672e+01 6.804232533671383010e+01 2.107558604252408259e+02 8.118665092239797332e+01 3.449366353752418490e+01 2.639469725688930524e+01 5.150728923629161926e+01
9.416151776026808307e+01 5.870511695303753186e+01 -3.648118080769025795e+01 -7.615296116736159604e+01 6.425165866771497747e+01 1.205346078937420273e+01 5.803436742640953128e+01 2.064304553315488135e+02 8.072792214453107817e+01 3.531387363760050135e+01 2.786716863350504525e+01 5.506955641533500057e+01
9.609560393632689568e+01 5.945088411676290718e+01 -3.757807987417609752e+01 -7.762076687825660315e+01 6.616930023443357811e+01 1.133737992550585005e+01 4.843972243093470809e+01 2.033178980557585191e+02 7.858965173556886441e+01 3.431925521119191558e+01 2.793841985436451836e+01 5.713912311559491997e+01
9.790432535020623561e+01 5.963024050796079933e+01 -3.943222941594544295e+01 -7.828747013059351900e+01 6.817647791903188192e+01 1.026592381738025317e+01 4.063970457229783051e+01 1.995801094608724782e+02 7.755629726393227941e+01 3.349906397908777222e+01 2.768056354517131368e+01 5.882587246684013849e+01
9.793511190575658532e+01 5.490011514178738850e+01 -4.335115220936846470e+01 -7.698199198170982527e+01 7.020666583157380103e+01 6.168929047121326725e+00 3.475353027754562163e+01 1.965808569124107521e+02 7.578464965137696652e+01 3.237143242543603350e+01 2.620007475377834538e+01 5.943450240488384395e+01
9.772086825657717668e+01 4.997011075885534837e+01 -4.815587603495724522e+01 -7.394808541494913356e+01 7.210413630105934146e+01 7.168083775766819210e-01 3.111960072665058519e+01 1.949334725211807040e+02 7.392991614234132669e+01 3.101738646672699673e+01 2.521215420813818398e+01 6.033512559258441144e+01
9.572882558754668025e+01 4.186104942861945233e+01 -5.518619355788413117e+01 -6.901590475725510032e+01 7.465357705259305021e+01 -6.560310639555910761e+00 2.856556819340558917e+01 1.931158737396241349e+02 7.167358978662751667e+01 2.872975857265297961e+01 2.246167485742042302e+01 5.938163114503116446e+01
9.393590610433427912e+01 3.184060720845409875e+01 -6.241811533520678523e+01 -6.377537418597407282e+01 7.784837474811145341e+01 -1.512983684964666153e+01 2.826939900569390218e+01 1.930445080252010825e+02 7.002173243716890738e+01 2.644965543839239430e+01 2.119761434908073028e+01 5.796508043757228279e+01
9.175757499995081901e+01 2.036146505926544137e+01 -7.125084966230015482e+01 -5.681289587706663724e+01 8.062618893337391057e+01 -2.476868394899748083e+01 3.012877676723480391e+01 1.932576441469631163e+02 6.755736037483092105e+01 2.349485939003159274e+01 1.841002642463243077e+01 5.625066215070348363e+01
8.950222007229920962e+01 9.347174346338253059e+00 -8.072041982180209629e+01 -5.005164460951813510e+01 8.431096291182879554e+01 -3.529449849303224340e+01 3.296103770846237069e+01 1.956817922778031971e+02 6.655279507108514281e+01 2.207678356372527162e+01 1.766492510791636050e+01 5.465536663886697255e+01
8.604403061575156642e+01 -3.272555315101052908e+00 -9.048838710859357093e+01 -4.243128950511145092e+01 8.797277347837916750e+01 -4.651518281772322183e+01 3.806721590081343720e+01 1.987699609876456748e+02 6.515194149910855970e+01 1.999194005450705447e+01 1.611438690831641551e+01 5.138350439412324278e+01
8.315134705832151951e+01 -1.508327812746446916e+01 -9.909657382090512101e+01 -3.385008590365858794e+01 9.014540446100323834e+01 -5.731183585460303931e+01 4.264010191946839257e+01 2.017154411314600395e+02 6.520814924605355145e+01 1.985704771382172140e+01 1.577838950825506004e+01 4.984346499601067393e+01
7.741485658017919036e+01 -2.936254621637933937e+01 -1.079497030617267228e+02 -2.482716309855167935e+01 9.227507128159058425e+01 -6.844369643462131592e+01 4.901859803610011568e+01 2.048506312388825847e+02 6.392615360031931004e+01 1.756722136035767434e+01 1.367674675705695186e+01 4.537489808930754265e+01
7.176430927677732541e+01 -4.291397833341627432e+01 -1.150806191900854429e+02 -1.486873605935965870e+01 9.328638208688332156e+01 -7.940416382831804754e+01 5.563049698826618084e+01 2.068571668619455295e+02 6.188411370036078551e+01 1.623075250760899024e+01 1.169653280843282950e+01 4.162962821923040480e+01
6.452356931835441856e+01 -5.684882317994999568e+01 -1.212240554906049823e+02 -3.915044705972143380e+00 9.240760041246700496e+01 -8.953644900480607305e+01 6.136402915976446337e+01 2.070491117000754002e+02 5.942476452153601940e+01 1.267669110234356822e+01 7.462627841559085873e+00 3.525799904874620694e+01
5.591490351798867664e+01 -6.961644782271177689e+01 -1.256693559213286875e+02 5.906587609350252066e+00 9.112723561420934004e+01 -9.791758028133735081e+01 6.758532065841414749e+01 2.062223497018665626e+02 5.546838539560785364e+01 8.430229424684767991e+00 3.656851256579300546e+00 2.948137827627687102e+01
4.673684151472475179e+01 -8.415247206276157499e+01 -1.306785169450302533e+02 1.777285319429716992e+01 8.813358692125002847e+01 -1.074791783777738772e+02 7.294933228383155210e+01 2.031337107765651240e+02 4.902088633680261864e+01 2.442137446262182987e+00 -3.204637713721336656e+00 2.108726221209253993e+01
3.785924248531490832e+01 -9.537865593740352210e+01 -1.339516161359414923e+02 2.745488210631900117e+01 8.590496525724795163e+01 -1.154869139244689791e+02 7.783960526414890069e+01 2.004754241179449252e+02 4.201519091826916963e+01 -3.639212487551879871e+00 -9.734825647063090059e+00 1.373807190709396053e+01
2.921835332232980065e+01 -1.089083325102602657e+02 -1.386849843792926436e+02 3.847521205346449591e+01 8.330351713320975193e+01 -1.237274426450071445e+02 8.261272323492127612e+01 1.966862590301961120e+02 3.459884082988654086e+01 -1.179204041000104652e+01 -1.768625263288691585e+01 5.068331830935103532e+00
2.153133900236584708e+01 -1.201407593576241624e+02 -1.414551801545947853e+02 4.873048971566312559e+01 8.072431524986023987e+01 -1.314455434314467368e+02 8.515938469303533509e+01 1.927667314930332054e+02 2.584015632181880662e+01 -1.927250447759475449e+01 -2.579515502506332680e+01 -2.217683128932932402e+00
1.373981801384770485e+01 -1.315605077602984068e+02 -1.454414886786646832e+02 5.838285953696348685e+01 7.888384468194951182e+01 -1.393790282890924743e+02 8.764959791062207728e+01 1.886600317370265429e+02 1.729856962657826003e+01 -2.832622777108990419e+01 -3.553318649241622040e+01 -1.096966817404116767e+01
7.176710494918540739e+00 -1.416184561883424067e+02 -1.486876442573917529e+02 6.659383965786939541e+01 7.724412626224656719e+01 -1.452106502908224570e+02 9.000164325291903822e+01 1.847391529487877335e+02 9.490597132326628937e+00 -3.649816428860484052e+01 -4.332463063293034367e+01 -1.776999468315247199e+01
5.409861718187204405e-01 -1.511432125669946913e+02 -1.517722370059679804e+02 7.380733722762566629e+01 7.658121984173203600e+01 -1.517563668712479057e+02 8.978540761031565864e+01 1.810945751549472504e+02 1.781932016315839862e+00 -4.468587409650698561e+01 -5.186950748796836308e+01 -2.524186158795997059e+01
-2.498961446694930366e+00 -1.572230636066842351e+02 -1.546493439179414793e+02 7.871413186165112563e+01 7.525532657081635080e+01 -1.562417693086651980e+02 9.065057425480148368e+01 1.784392958843383212e+02 -4.445567315916988171e+00 -5.207442473571413899e+01 -5.882970425498854183e+01 -3.142126901044233023e+01
-6.041611100772621867e+00 -1.633906704738420217e+02 -1.574134546717489798e+02 8.365388218629681205e+01 7.499162714380356931e+01 -1.604676797618271848e+02 9.106167417882781479e+01 1.754976235338253616e+02 -9.991966139930832824e+00 -5.817041244010832202e+01 -6.585404294924967417e+01 -3.661200160024866790e+01
-7.572886688736407024e+00 -1.661555335513330363e+02 -1.585275980400037099e+02 8.619898842006146822e+01 7.496265710882441624e+01 -1.632728720949745878e+02 9.098917095816894118e+01 1.746053751704830006e+02 -1.443109706002191039e+01 -6.220202010353919064e+01 -7.021205976954018979e+01 -4.008338353743084781e+01
-8.626025703476082995e+00 -1.678770866666592667e+02 -1.592960385902241853e+02 8.770401356782775792e+01 7.509013012039949331e+01 -1.647857713215932165e+02 9.098645231931901378e+01 1.731847050433484299e+02 -1.729461882603863998e+01 -6.596760691499588347e+01 -7.403771559635160315e+01 -4.361161778524819255e+01
-9.517066314787374637e+00 -1.678925112834152742e+02 -1.583440134026318162e+02 8.854787441166975270e+01 7.453187790431653070e+01 -1.645827192525033809e+02 9.105388779050794312e+01 1.730923184144091351e+02 -1.915450933530709321e+01 -6.815677605264353645e+01 -7.599564259685031686e+01 -4.482399945042498501e+01
-1.023379698745758226e+01 -1.678089069412734489e+02 -1.575825944108704277e+02 8.876462320600083444e+01 7.335502725464385776e+01 -1.633721412128774944e+02 9.058918887356622918e+01 1.728449574877303405e+02 -2.023000881567312348e+01 -6.934901523373621046e+01 -7.796614110331451286e+01 -4.662655392151395972e+01
-9.831635214441918791e+00 -1.659886233467275076e+02 -1.562119002324505459e+02 8.757115636379809587e+01 7.283918634655168489e+01 -1.624694284843746743e+02 8.925852449574333036e+01 1.732045370178353494e+02 -2.031247017251685349e+01 -6.875680019821170674e+01 -7.778315379960224618e+01 -4.547297362630725814e+01
-9.800627683620909636e+00 -1.666608794134399147e+02 -1.563814012156118167e+02 8.836630878254912602e+01 7.351472659697078882e+01 -1.616939506250326701e+02 8.905370861324892928e+01 1.727102529840261695e+02 -2.129099880874949591e+01 -6.886273174135303066e+01 -7.829741070579525797e+01 -4.647930359877535267e+01
-8.091190120263844321e+00 -1.673333393428009970e+02 -1.580176957785170657e+02 8.765215190537361423e+01 7.454138064631409577e+01 -1.630473083625628306e+02 8.848023065638253115e+01 1.737425109716519103e+02 -2.120191382276295045e+01 -6.701180042912865531e+01 -7.731531172030011589e+01 -4.557932885243530308e+01
-7.859349402086294845e+00 -1.691739092455053139e+02 -1.604926712637620483e+02 8.834838562403965057e+01 7.590881486283664970e+01 -1.650342982589516510e+02 8.784965970749287578e+01 1.738970142350245851e+02 -2.247347095437315900e+01 -6.726996096061375852e+01 -7.661062599572500176e+01 -4.604410597967386565e+01
-5.583930951806352461e+00 -1.710349628230128474e+02 -1.642795564200035585e+02 8.763311364892430788e+01 7.866576869218387458e+01 -1.676893169776195407e+02 8.804213151010934268e+01 1.745430575050307596e+02 -2.157679454149599252e+01 -6.634338350206876100e+01 -7.527246786170572079e+01 -4.387428167028996739e+01
-4.678012181313286888e+00 -1.728608884820604601e+02 -1.673714802087968110e+02 8.842639384217193310e+01 8.133620405268747788e+01 -1.698196953825694209e+02 8.835816022607937725e+01 1.754948987216149305e+02 -2.245447276512001977e+01 -6.553825010610660229e+01 -7.459994551935969298e+01 -4.402787032137652545e+01
-2.734219017771403859e+00 -1.729549513172417790e+02 -1.689687563410877260e+02 8.717174753878990145e+01 8.248201007374383664e+01 -1.704465596510628416e+02 8.969186826728477513e+01 1.766468245128280614e+02 -2.113774567638169799e+01 -6.475099225238102463e+01 -7.335961765243712307e+01 -4.180262803600983545e+01
-1.497334722049874944e+00 -1.726965280751281284e+02 -1.708754086721836245e+02 8.684229437242532867e+01 8.409982956217545791e+01 -1.712244942108449379e+02 9.044081192093604216e+01 1.774352841403843968e+02 -2.119089487173035025e+01 -6.485219919389999177e+01 -7.209970571630752545e+01 -4.251811468250560466e+01
-3.276614019013355805e-01 -1.712519512581860113e+02 -1.709273953910536363e+02 8.457794918518213478e+01 8.533644791226973325e+01 -1.708993573921526661e+02 9.163971973540142812e+01 1.786840668594790600e+02 -2.041474245281084876e+01 -6.308746136732160181e+01 -7.016514844995276690e+01 -4.105550122612168451e+01
4.088406496013599623e-01 -1.705813530550953772e+02 -1.710638388534172236e+02 8.400494345658529483e+01 8.472817258758047387e+01 -1.706583884077768971e+02 9.248452273368293675e+01 1.794019016131782109e+02 -1.949982471124689809e+01 -6.280564804320435712e+01 -6.926745481567371598e+01 -4.093042136630273831e+01
1.419969365221903201e+00 -1.697158950271369520e+02 -1.710008484672205498e+02 8.390391036070454334e+01 8.531461452269724077e+01 -1.696674089895941506e+02 9.357528566792593949e+01 1.807069721376810776e+02 -1.847945669892308374e+01 -6.108922179625594140e+01 -6.696388221221874915e+01 -3.887643940580299784e+01
1.633701104516661617e-01 -1.701772169975425868e+02 -1.705800413191021221e+02 8.409739848617249436e+01 8.425991553211892438e+01 -1.702681110240150133e+02 9.460363677637063518e+01 1.813800710809035763e+02 -1.693893959638716140e+01 -6.083857272681014905e+01 -6.688086573681036384e+01 -3.947307570041203206e+01
2.218482733785633876e-01 -1.702527171311265874e+02 -1.697428807492348142e+02 8.423029425554625504e+01 8.411689472883165308e+01 -1.697582086118164852e+02 9.503688994266221357e+01 1.827129959176491241e+02 -1.573038333650295861e+01 -5.900751494165314881e+01 -6.502985004960244453e+01 -3.806226879672131957e+01
-7.153024984541560549e-01 -1.714200481573036541e+02 -1.701842218593732525e+02 8.587807303040214890e+01 8.340336544828676324e+01 -1.702302731659604831e+02 9.547847149002009814e+01 1.834062691995988814e+02 -1.569718988284859940e+01 -5.929378251212695261e+01 -6.516444841557073175e+01 -3.827654443270294848e+01
-8.772564371719026033e-01 -1.706494913850505384e+02 -1.698836999371093839e+02 8.585474739185984561e+01 8.298111372060418489e+01 -1.697686963019561972e+02 9.578050461994939724e+01 1.843398966643412678e+02 -1.507194172890746131e+01 -5.859579856914220386e+01 -6.522081425611361283e+01 -3.765249080562129080e+01
-1.611168270796393909e+00 -1.713069633283296014e+02 -1.697476192911339012e+02 8.618218131645110702e+01 8.258858221236334884e+01 -1.702635450521958660e+02 9.460262870120421042e+01 1.836753096930862910e+02 -1.651756149710406874e+01 -5.983596402511290790e+01 -6.643424757288839544e+01 -3.837920498950264658e+01
-2.003433584954990909e+00 -1.707592241528187458e+02 -1.682062090643937609e+02 8.581133731884153804e+01 8.140148622459156513e+01 -1.693945532221089820e+02 9.530886540601090928e+01 1.843492798736357656e+02 -1.562593655444372587e+01 -5.982217079930839532e+01 -6.596123460356845669e+01 -3.760444293532982130e+01
-2.406019562414013713e+00 -1.708591339348209033e+02 -1.677346774402728613e+02 8.617562215103342282e+01 8.048331080215230315e+01 -1.685369015174195226e+02 9.474352039458592856e+01 1.835769754589657623e+02 -1.595542376110971361e+01 -6.028268451347270229e+01 -6.810377715214617922e+01 -3.839855449307660962e+01
-3.662119975960168361e+00 -1.691558872885562721e+02 -1.658492207715255802e+02 8.588162530090862390e+01 7.946077322070749460e+01 -1.674406163408527846e+02 9.518167464753771867e+01 1.848477110943358639e+02 -1.409146904941612988e+01 -5.934346602016706385e+01 -6.764651458655815475e+01 -3.763132523060318135e+01
-4.035104686201556490e+00 -1.683930349321210826e+02 -1.640157086806951554e+02 8.571245634759610255e+01 7.844528660640628459e+01 -1.660727584464175663e+02 9.522791293429595783e+01 1.847817704053798309e+02 -1.339653994214630828e+01 -5.861411564727991674e+01 -6.836721502376769877e+01 -3.802857099799674501e+01
-4.381268036912966402e+00 -1.655142861668455510e+02 -1.618807559122336102e+02 8.464384363534786360e+01 7.749875767658291181e+01 -1.642174538305248745e+02 9.642832222163193023e+01 1.856207637580377821e+02 -1.090123367432634360e+01 -5.735410508584482159e+01 -6.767939148090604817e+01 -3.592345682537240492e+01
-5.302591656738846915e+00 -1.643159147714463870e+02 -1.595980692268772145e+02 8.496126523219402316e+01 7.640934680567578141e+01 -1.633074548573941911e+02 9.591314744946203064e+01 1.864356841691111413e+02 -1.063021308595552838e+01 -5.617439892290080650e+01 -6.792952684624826531e+01 -3.600887069739280122e+01
-4.734100472959140049e+00 -1.615752875077505735e+02 -1.565409970001898898e+02 8.301477027456961366e+01 7.555303057520436028e+01 -1.606101642946116215e+02 9.850042728669430403e+01 1.872664463711569738e+02 -7.249937716178995295e+00 -5.412533402363759905e+01 -6.640586165650950079e+01 -3.390732899720538995e+01
-5.294975474294589368e+00 -1.602300336149117754e+02 -1.556213328906046911e+02 8.291927333060553451e+01 7.431357158544845731e+01 -1.592477047539740624e+02 9.925116441590596139e+01 1.871369922965726573e+02 -6.942521497586995771e+00 -5.337244729413880151e+01 -6.726345451937928033e+01 -3.405403511043797238e+01
-4.362585734599735865e+00 -1.580343840804918614e+02 -1.542987656312305376e+02 8.098920903647493219e+01 7.400730692829819191e+01 -1.565931134188596729e+02 1.008734658112945510e+02 1.885478188532248396e+02 -4.971776313939470171e+00 -5.089470675097419416e+01 -6.432219430483205258e+01 -3.182045790519955020e+01
