8.000000000000000000e+01 -2.999999999999998934e+01 -1.099999999999998721e+02 -2.500000000000002487e+01 9.599999999999994316e+01 -6.900000000000002842e+01 1.050000000000001705e+02 4.020000000000002842e+02 2.600000000000031619e+01 -5.999999999999988631e+01 -6.700000000000002842e+01 -6.699999999999991473e+01
6.707459885721239345e+01 -2.297817731844924083e+01 -8.905356762115881963e+01 -2.105200514135673373e+01 8.006432866627442024e+01 -5.501635730018858084e+01 8.405360069328787631e+01 3.342541404984796714e+02 1.306955913950873160e+01 -6.296906308589498025e+01 -6.498845981627114554e+01 -5.999693664824204120e+01
6.391586834593154975e+01 -1.804664868399681055e+01 -8.096282525638304151e+01 -1.993170971707518291e+01 7.393956571433248826e+01 -4.900164288728569062e+01 7.496593149886635388e+01 2.998031486398628545e+02 2.947822737860853248e+00 -6.702265059049972251e+01 -6.600831787072249313e+01 -5.701717629710784507e+01
6.607939695085286758e+01 -1.695113356955408790e+01 -8.103347126027723846e+01 -2.406060213208595044e+01 7.505855064617976780e+01 -4.899455807818939945e+01 7.404546421046163118e+01 2.922653474862801204e+02 -2.899982214408641124e+00 -7.492109562661606503e+01 -7.195450079836817281e+01 -5.597972905496345675e+01
6.988602683993485698e+01 -2.200217768841143240e+01 -9.087944995802989467e+01 -2.195108922091522885e+01 8.088489801071820295e+01 -5.593897641548842614e+01 7.296086814496666761e+01 2.927164867274778430e+02 -1.202896825023749194e+01 -8.698457089245971474e+01 -7.898518315019124714e+01 -6.295937121501295053e+01
7.209315551022866941e+01 -3.388183923046001667e+01 -1.049835049544269054e+02 -1.709905836753375397e+01 9.002853685483795232e+01 -6.992789983307785917e+01 7.303739400806371407e+01 2.962602241771584772e+02 -2.186702793026539382e+01 -9.888641278642653276e+01 -8.890824221316887588e+01 -7.492477122757541963e+01
7.486250580074732852e+01 -4.004128362559687559e+01 -1.138917280635911311e+02 -1.591117782808100856e+01 9.588997207444735693e+01 -7.697791348564483371e+01 7.395524809756636841e+01 2.977187439753928970e+02 -2.805424421266517854e+01 -1.070183132723559538e+02 -9.700116923496617005e+01 -8.099285968483211207e+01
7.810786413580041199e+01 -4.191588839779891629e+01 -1.200281553766204752e+02 -1.610420435466200573e+01 9.906896737225962113e+01 -7.996859782486536972e+01 7.306120309955154823e+01 2.914158626339440161e+02 -3.285899292840257857e+01 -1.099214769764817845e+02 -9.796877119605565554e+01 -8.396202225488123361e+01
7.591020935216347709e+01 -4.504274770253545768e+01 -1.199572050106325065e+02 -1.292834612864216126e+01 9.892345801941419836e+01 -8.298517632959587331e+01 6.804109195327448845e+01 2.679834745621096772e+02 -4.002366348609246671e+01 -1.120633960911633551e+02 -9.804423587971520249e+01 -8.501327119225653917e+01
7.415285606408829722e+01 -4.592019445595457228e+01 -1.200503262183187729e+02 -1.212314291603119720e+01 9.811065459133482136e+01 -8.398625426198620403e+01 5.716445916169698194e+01 2.376441756001406702e+02 -4.682298968340512602e+01 -1.089683099072168631e+02 -9.500061901253377528e+01 -8.695277989819514630e+01
6.698545696007498407e+01 -5.096368450301898889e+01 -1.189653962782157635e+02 -5.010719311454614910e+00 9.298742173985164072e+01 -8.596890493023674651e+01 4.610059952956219576e+01 2.050636013144282117e+02 -5.598597119010804590e+01 -1.100243875984488682e+02 -9.402700362609125762e+01 -8.801472858274630084e+01
6.117175499978857545e+01 -5.887144243824889855e+01 -1.180766656089244293e+02 8.586333568683273132e-01 8.911851334241245581e+01 -8.800017855899321262e+01 3.416804834549063941e+01 1.805485599900725333e+02 -6.283345793677797531e+01 -1.119181075693912675e+02 -9.494180247796566618e+01 -9.091982633383052814e+01
5.595780452899271751e+01 -5.814260062125165263e+01 -1.120827385193006336e+02 3.097935638346077436e+00 8.499361535292807446e+01 -8.409762322882401975e+01 2.899531242230673200e+01 1.687438927958926911e+02 -6.899703874773919665e+01 -1.150053408155879424e+02 -9.798744560967892880e+01 -9.205783488037096163e+01
5.409983602770417122e+01 -5.298402237140123106e+01 -1.050923213168316863e+02 9.309065851541875602e-01 8.111144651747672185e+01 -7.903394515825030453e+01 2.511605683653613497e+01 1.712340983423472096e+02 -7.483750129459039613e+01 -1.179040171151538203e+02 -9.994926434814198046e+01 -9.095310249791501178e+01
5.392817179630244340e+01 -5.204802935059636582e+01 -1.049446731770633789e+02 2.054909018924434339e+00 7.993778497032627683e+01 -7.801255942093158069e+01 2.198969518971805925e+01 1.746305873017470560e+02 -7.804777531250809375e+01 -1.209894810619121444e+02 -1.010216256480185422e+02 -9.107586360314645901e+01
5.113014023132976860e+01 -5.391696392155010642e+01 -1.040793550286285978e+02 2.911733360205140730e+00 7.908236842152285817e+01 -7.798711794898261473e+01 1.909595919240306827e+01 1.792493814832991461e+02 -8.182030712681786611e+01 -1.258543895202895300e+02 -1.009685764817557043e+02 -8.798960834640531914e+01
5.284470879839760471e+01 -5.116989220797447047e+01 -1.020059242058271138e+02 2.126617231406353170e+00 7.894852668550389296e+01 -7.706954125380192977e+01 2.082318050875706561e+01 1.787592588167691190e+02 -8.603022825710482380e+01 -1.290240183643492458e+02 -1.029463944939696489e+02 -8.804620514914722662e+01
5.121503050147533997e+01 -4.794962608404824067e+01 -9.814283677744744239e+01 -5.986295859794416030e-02 7.517903360511819244e+01 -7.210179618276379188e+01 2.605733871566015836e+01 1.715751583837861176e+02 -8.980711886777297082e+01 -1.318582134804255190e+02 -1.078934085323275127e+02 -8.600829596007474720e+01
4.789917281856511266e+01 -4.518759913590294275e+01 -9.307305928560099062e+01 -8.925956714890466159e-01 7.196111858862765587e+01 -6.806952165865762083e+01 2.012579238421097827e+01 1.531507661106182354e+02 -9.498644673818292006e+01 -1.350155268548151923e+02 -1.090414898621175013e+02 -8.504043683698971279e+01
4.621994483817896793e+01 -4.096463630361492392e+01 -8.718313075638594967e+01 -1.113510057739974579e+00 6.822311237151444629e+01 -6.507406236414824718e+01 1.321942262833395532e+01 1.308760117173317212e+02 -9.979913286534556960e+01 -1.378630258431409743e+02 -1.089673807090226205e+02 -8.496828682767080920e+01
4.097150809030681984e+01 -3.915531257587041125e+01 -8.110239127772808843e+01 7.862551802044309701e-02 6.202868788434281555e+01 -6.110011782276931314e+01 3.199224628588717145e+00 1.042950805620807557e+02 -1.040048060276162261e+02 -1.381382322201154977e+02 -1.080667695929842296e+02 -8.312752931521147559e+01
3.915187215786677655e+01 -3.690316807870085114e+01 -7.611569590582287503e+01 8.573274879390049286e-01 5.913268141720986648e+01 -5.805188454187658209e+01 -2.876964156290548580e+00 8.372549576857478826e+01 -1.068814914399073501e+02 -1.359400581872896510e+02 -1.070021144288678272e+02 -7.999402156401970387e+01
3.695099677437458041e+01 -3.904056071212531975e+01 -7.497102498752627753e+01 3.064990114124228615e+00 5.697562365466554724e+01 -5.603875430464159280e+01 -9.724897998296169632e+00 7.182125070297608715e+01 -1.051721021941040703e+02 -1.332571045218607253e+02 -1.041247723352568642e+02 -7.908438886618101549e+01
3.512464160857232542e+01 -3.987075480691216711e+01 -7.498039479511344041e+01 2.916847103332228297e+00 5.604011274250523655e+01 -5.690902066235465639e+01 -2.081541844868946356e+01 7.225743119919199842e+01 -1.048394231325147530e+02 -1.269524511469886789e+02 -1.029261825226655560e+02 -7.793617981802226780e+01
3.773335038926828133e+01 -4.298260331944552348e+01 -8.073301165825184000e+01 3.079362284921823623e+00 6.072240721619969150e+01 -6.087371931364933886e+01 -1.732572197610098641e+01 7.078973128697792561e+01 -1.070458346476666094e+02 -1.318620488312444365e+02 -1.059035985745805419e+02 -7.998279907311686543e+01
4.204603361461142441e+01 -4.584965290748558431e+01 -8.691118348636695146e+01 3.883960531068190392e+00 6.598936342727914450e+01 -6.585747205956637629e+01 -9.082201052229860849e+00 6.929549082430273188e+01 -1.098082787538648262e+02 -1.368530269111874134e+02 -1.108692283862130807e+02 -8.189922522680127770e+01
4.474752026338438782e+01 -4.615578274006585247e+01 -9.086177708621434590e+01 2.237485441268900921e+00 6.882184191775462523e+01 -6.801239583307165049e+01 -8.024551779310757027e+00 6.970379786650903498e+01 -1.092588059952171307e+02 -1.362198529115863153e+02 -1.092131357821675834e+02 -8.119208653623631733e+01
4.812887919882484056e+01 -4.391704627453630394e+01 -9.112810104179763471e+01 -1.122632561819691066e+00 7.013392592491719313e+01 -6.797017215587953842e+01 -9.813407998038105262e+00 6.563735465917203271e+01 -1.039902697558315481e+02 -1.300874735983703943e+02 -1.040873871380169504e+02 -7.603822117820803328e+01
4.315402347999081911e+01 -4.599339728257095317e+01 -8.804890231749675422e+01 3.862229261576484163e+00 6.703830868474844351e+01 -6.804676811634044498e+01 -1.769686571117817309e+01 4.938915858330054220e+01 -1.040390899889966221e+02 -1.271563816238754612e+02 -1.001707760805530398e+02 -7.512262286989965787e+01
3.536709733348537554e+01 -4.877162440982625213e+01 -8.516513157527464273e+01 9.725730970384979912e+00 6.232282862065813589e+01 -6.699100523436592880e+01 -2.763620774113436696e+01 2.712710951721853547e+01 -1.058617753193790207e+02 -1.240314757007964488e+02 -9.706993990089642921e+01 -7.015227481616381056e+01
2.724271624770979372e+01 -5.483715817863394903e+01 -8.111494306715468383e+01 1.583010063988633576e+01 5.420012403127467593e+01 -6.795985760076254678e+01 -3.582201728126315743e+01 4.415839900885004887e+00 -1.051711180303242230e+02 -1.202945961642319901e+02 -9.133058761490720201e+01 -6.524281959535534270e+01
1.736273899050781466e+01 -5.983356395931167526e+01 -7.714846037406418588e+01 2.273816158441009350e+01 4.822676191928285760e+01 -6.897703260626434485e+01 -3.981565793954741395e+01 -1.309490447976999938e+01 -1.048283575640392939e+02 -1.122240498520663010e+02 -8.417353594380944060e+01 -5.913084825626975061e+01
1.764764197444730698e+01 -5.920385197614380246e+01 -7.595441549394820413e+01 2.228903749158133962e+01 4.685463492113544248e+01 -6.809699052477891712e+01 -4.760058440015497894e+01 -2.784835009804762151e+01 -1.070307138006834009e+02 -1.062478409750449799e+02 -7.826740946053767800e+01 -5.707203105102007612e+01
2.298902359565135711e+01 -5.512370905592612047e+01 -7.604157140384990043e+01 1.707454519897396139e+01 4.995124561784869144e+01 -6.512797144214883360e+01 -5.678899355460510634e+01 -3.646799470531545495e+01 -1.088527282836117394e+02 -1.020737299933790467e+02 -7.407440387281795324e+01 -5.598673320045404722e+01
2.757113207502152363e+01 -4.748603611448721296e+01 -7.598552209552515535e+01 1.143264113647988900e+01 5.279469783811830297e+01 -6.118510684447566206e+01 -5.802820064209956286e+01 -3.932497547329858634e+01 -1.063731817475355541e+02 -9.735622751736337932e+01 -6.931761572256012016e+01 -5.514686373238510697e+01
3.583329173051424021e+01 -3.913317956941997267e+01 -7.414212638915508080e+01 3.156904996667359242e+00 5.598819925615883619e+01 -5.714267637098927821e+01 -5.891829176460024797e+01 -3.863757724847119590e+01 -1.000478724243691744e+02 -9.012979096043333982e+01 -6.406369908877663022e+01 -5.108706523496383056e+01
3.983789038681245387e+01 -3.615591113863155215e+01 -7.295555398440809824e+01 1.249985733898609508e-01 5.598838710481741288e+01 -5.409822207470448063e+01 -6.084404712259195946e+01 -4.210967048173200311e+01 -9.907190049245440377e+01 -8.903016749464356394e+01 -6.303201089862269413e+01 -5.189192053313907138e+01
3.912568323899548517e+01 -3.497933769161181061e+01 -7.303345445611276432e+01 -4.702472878180175009e-02 5.595102299060130235e+01 -5.302100961381776756e+01 -6.853695571791766383e+01 -4.828412184179077116e+01 -1.007771135581435544e+02 -8.895280299567373561e+01 -6.484457999238132686e+01 -5.305684746965263088e+01
4.527079788374645375e+01 -3.045917043577215111e+01 -7.478704253723080342e+01 -5.438213670721326665e+00 6.157109429018164803e+01 -5.204125686683153162e+01 -7.673150497712441620e+01 -5.885192935209321519e+01 -1.030407433847332896e+02 -9.084377132224855700e+01 -6.512735170040633648e+01 -5.013335748671107694e+01
5.781383053742882083e+01 -2.308084213143151686e+01 -7.888318604082959951e+01 -1.485733056452646395e+01 6.883058759283693462e+01 -5.200536953460188272e+01 -8.450636799524897924e+01 -6.907464114843993741e+01 -1.047685632009316521e+02 -9.581449744246690159e+01 -6.486361277171728545e+01 -4.902577847199467698e+01
5.714832929759081992e+01 -2.389154673855662381e+01 -8.092356711692339388e+01 -1.506721646424788830e+01 7.007155343832336314e+01 -5.099941088600496641e+01 -9.460207224413089477e+01 -8.636689453400684613e+01 -1.079406295238871252e+02 -9.427558021666696675e+01 -6.606693811051151499e+01 -4.619879564236902780e+01
5.311763823994273537e+01 -2.781468305133187968e+01 -8.104329507051896542e+01 -1.122916431691783856e+01 6.706576103221728147e+01 -5.472774179003786088e+01 -1.017189319244774879e+02 -1.039917168190703478e+02 -1.117192226039762204e+02 -9.190195195286210605e+01 -6.592324042047376054e+01 -4.492142872371412921e+01
5.839175762007043602e+01 -2.543307421102156241e+01 -8.185425288118108256e+01 -1.347247351122475756e+01 7.156970476513050983e+01 -5.525540318932809924e+01 -1.040731199428477822e+02 -1.131574066472770994e+02 -1.131486822608766261e+02 -9.304033380342073656e+01 -6.517722836629019412e+01 -4.509171043910315291e+01
6.688351991502490534e+01 -1.907470956077842317e+01 -8.486954773930730767e+01 -2.281289307410523648e+01 7.692510760292033467e+01 -5.193790517677318519e+01 -1.029210150196864362e+02 -1.136404116177490948e+02 -1.128284212227413406e+02 -9.383684892769953478e+01 -6.388210494098321135e+01 -4.488115696996935355e+01
6.621777733348713468e+01 -1.985425398200264624e+01 -8.607783701036365187e+01 -2.129796374226213729e+01 7.712260393481142273e+01 -5.398461491041930316e+01 -1.076173633954957864e+02 -1.179259621773439761e+02 -1.149547253693363160e+02 -9.597265098341729583e+01 -6.596066169438306304e+01 -4.693105103673334355e+01
5.666185534139504654e+01 -2.648695746949584873e+01 -8.220355303274607195e+01 -1.344510829780552186e+01 7.045421893031452498e+01 -5.390903516673144225e+01 -1.155691281762558731e+02 -1.262140619406828392e+02 -1.195491578856128996e+02 -9.781161645810345817e+01 -6.781759437138819635e+01 -4.976871845318366638e+01
5.182013000817437387e+01 -3.197194000199977992e+01 -8.276474421277839610e+01 -9.048569901923306347e+00 6.781772010459800981e+01 -5.684865907165789167e+01 -1.226553419987062767e+02 -1.339734249239106703e+02 -1.249270637284583216e+02 -9.996563955733468276e+01 -6.910445372601007819e+01 -5.114536250653478078e+01
5.232717764155665208e+01 -3.457403287668974201e+01 -8.590653213878407257e+01 -6.321409725579541394e+00 7.002160556021932791e+01 -5.973748200755970572e+01 -1.286900218174876613e+02 -1.402517727134264192e+02 -1.276906223535720386e+02 -1.018334749792553424e+02 -6.706583528028116348e+01 -4.899225942218841823e+01
4.446754001925799571e+01 -4.438352899420621611e+01 -8.876030024002615448e+01 5.136026132216126028e-01 6.910892642778590300e+01 -6.654072438426344149e+01 -1.328395399441347706e+02 -1.488270167531543677e+02 -1.327343909209044739e+02 -1.030035055267111801e+02 -6.601641252865199760e+01 -4.906373937538582197e+01
3.636888028748293067e+01 -5.540928626128877710e+01 -9.187071344872357770e+01 1.049290261061364760e+01 6.520936662924391669e+01 -7.365715405201679289e+01 -1.349393039995127879e+02 -1.571677724356684109e+02 -1.395466919177098362e+02 -1.056896482053203954e+02 -6.870242951653025898e+01 -4.974765208106973091e+01
3.493185880849710401e+01 -6.177108848563823074e+01 -9.567897903147502348e+01 1.395042773872775221e+01 6.669704206550962056e+01 -7.870678449271730415e+01 -1.349917969857718845e+02 -1.658341753474946358e+02 -1.429996607066645140e+02 -1.089437685910787934e+02 -7.192354470394163002e+01 -5.478028238526381699e+01
3.142339720376306289e+01 -6.843216422239881069e+01 -9.981779424166271042e+01 1.944842136472797023e+01 6.813160390477960959e+01 -8.458621879208247663e+01 -1.368286431976147526e+02 -1.741366168957503362e+02 -1.465523806865614915e+02 -1.116978253417684783e+02 -7.473700135535490574e+01 -5.777203751561783207e+01
2.976192523766477649e+01 -7.481236289033942910e+01 -1.045786408028355225e+02 2.400218637977121006e+01 6.874989734650567641e+01 -9.068296642540038022e+01 -1.380107770091480006e+02 -1.819473017382056526e+02 -1.509569741750886749e+02 -1.149283745174209201e+02 -7.697936910336541416e+01 -6.179490878051441172e+01
3.025580850056414306e+01 -7.954700509587630108e+01 -1.098217313344051718e+02 2.663668931842197551e+01 7.100372629717747941e+01 -9.568087500490844377e+01 -1.397271247876154803e+02 -1.882086943694768024e+02 -1.536521320097491525e+02 -1.176984745714444500e+02 -7.966603703028229688e+01 -6.477692465147859480e+01
2.884019527510448455e+01 -8.481821809950190527e+01 -1.127495270754006356e+02 2.908484229605888061e+01 7.276016011494004943e+01 -9.980581566272850580e+01 -1.438087334752030415e+02 -1.941307244040577871e+02 -1.569619485360855720e+02 -1.209073924045564183e+02 -8.294785165397405535e+01 -6.873860198110973840e+01
2.918123355119289641e+01 -8.868547142130215377e+01 -1.158830985827493976e+02 3.065029871772327041e+01 7.408117332031613955e+01 -1.027925585635792345e+02 -1.476064900077272739e+02 -1.973075220457630792e+02 -1.596525027227557985e+02 -1.237361111167760015e+02 -8.565131181186546883e+01 -7.274711338073778677e+01
2.881886764659378741e+01 -9.014577134990473439e+01 -1.178420302034208902e+02 3.312882708813273780e+01 7.480910863014602796e+01 -1.049633974234735661e+02 -1.545371844582936376e+02 -2.030825105019658849e+02 -1.629266893080333887e+02 -1.250865196142272708e+02 -8.898755893808346684e+01 -7.583171305019912722e+01
2.916162503566813413e+01 -8.899701714092698523e+01 -1.181952560973979018e+02 3.195980611060662113e+01 7.517486006836305990e+01 -1.041635295480479471e+02 -1.614761631365355186e+02 -2.063026716855888765e+02 -1.665628706694229209e+02 -1.257893215158527056e+02 -8.982726677146774819e+01 -7.878476282471835646e+01
2.974469132648846781e+01 -8.636379592764359359e+01 -1.142562004177226953e+02 3.029997714725713109e+01 7.398181499402492989e+01 -1.003235845036490730e+02 -1.694657941600135871e+02 -2.129413493550040926e+02 -1.708467312864004271e+02 -1.270598770869123371e+02 -9.105542285548145287e+01 -8.090944079298502345e+01
2.939909197479757808e+01 -8.392002039467341490e+01 -1.112015753234073827e+02 2.881663512944645333e+01 7.139875257377821072e+01 -9.709690355351172286e+01 -1.765367363565275127e+02 -2.181507758193071993e+02 -1.763450922958530214e+02 -1.286479720297380140e+02 -9.176499357706333626e+01 -8.284017666399293489e+01
2.512398878861437623e+01 -8.408493793062574184e+01 -1.082246645313697826e+02 3.092771585141701607e+01 6.802901325514173436e+01 -9.606911404536845112e+01 -1.826038788214657131e+02 -2.268073853234060948e+02 -1.836610904647642428e+02 -1.328218154973035325e+02 -9.484031043702766794e+01 -8.396818234277876059e+01
2.060494193170393373e+01 -8.564876814400557237e+01 -1.051788269028525491e+02 3.452398444229178409e+01 6.543541633145129310e+01 -9.593273075941291950e+01 -1.876841178411230828e+02 -2.322464874906152659e+02 -1.903551520264101100e+02 -1.365922367122949197e+02 -9.859651362379906914e+01 -8.579081831930528779e+01
1.507391888552225012e+01 -8.892242433822427472e+01 -1.039935762438124272e+02 3.889225528979051916e+01 6.107580445212078502e+01 -9.692410984803277074e+01 -1.908329269865904791e+02 -2.389261772215632789e+02 -1.958802941526975587e+02 -1.408143185899983791e+02 -1.019823591845254782e+02 -8.703032031564393378e+01
1.330182326857955921e+01 -9.162443378909011926e+01 -1.048460017512492328e+02 4.166315057176978343e+01 6.013948520695125666e+01 -9.878543755439413587e+01 -1.937218801313113374e+02 -2.424287191180737864e+02 -1.994997684137069314e+02 -1.446094540087867131e+02 -1.028000636087911062e+02 -8.782576674949973494e+01
1.098716073198980503e+01 -9.572559453442356414e+01 -1.077643057925085230e+02 4.397403009089937598e+01 5.984990025142234771e+01 -1.017443080183870023e+02 -1.968260315032771359e+02 -2.461160381453191803e+02 -2.039176042987024573e+02 -1.478898553188270739e+02 -1.049352968446387138e+02 -8.902669500215621667e+01
9.313015274823786882e+00 -1.022905346362879015e+02 -1.106887030521098865e+02 4.746048246428431128e+01 6.100701761524459243e+01 -1.065112303299505498e+02 -1.996970022395059914e+02 -2.483908055280395502e+02 -2.065726326436642069e+02 -1.515204092659905655e+02 -1.067313017002212092e+02 -8.978399778989775371e+01
7.859279477210413312e+00 -1.087027084756454229e+02 -1.164853532668612530e+02 5.190400039634884877e+01 6.268971528683194805e+01 -1.125602429629048373e+02 -2.028699351508161328e+02 -2.530219900256781784e+02 -2.108305429855337820e+02 -1.558583961811640961e+02 -1.098025093731215236e+02 -9.278810301066923216e+01
7.320924370903673761e+00 -1.152323818940821241e+02 -1.216469149842022546e+02 5.545093882563379850e+01 6.501613207580656706e+01 -1.184941609273846979e+02 -2.047300268086889332e+02 -2.563017194082639207e+02 -2.145264690004796648e+02 -1.586607402652003032e+02 -1.136104239262177771e+02 -9.575163668183003551e+01
4.961742333183587483e+00 -1.217933388097667660e+02 -1.266324111133600212e+02 5.994247198783148889e+01 6.577176802521815091e+01 -1.237047434408387687e+02 -2.087168546215591505e+02 -2.619394375177482175e+02 -2.188225582492217427e+02 -1.609918738229557675e+02 -1.160377871366960392e+02 -9.787268269272334464e+01
4.201980579386997761e+00 -1.255388726774025798e+02 -1.289210808835601085e+02 6.168224000929198780e+01 6.793959462515996961e+01 -1.267766136332053293e+02 -2.117239880174505799e+02 -2.661741226959163100e+02 -2.225435097967380216e+02 -1.626859561427183110e+02 -1.167555186276209724e+02 -1.006927146308624543e+02
4.655246484567959975e+00 -1.281045806560688050e+02 -1.316380766502913957e+02 6.317970081175378283e+01 6.969604376934897516e+01 -1.288673571566974942e+02 -2.148644011402058993e+02 -2.737662428687464171e+02 -2.259216867820969696e+02 -1.649763072147253808e+02 -1.189640577884101447e+02 -1.029280627680097382e+02
7.029894417096985038e+00 -1.287025844664885597e+02 -1.348268007961579826e+02 6.193369428364238871e+01 7.284060847630703961e+01 -1.308071697672181699e+02 -2.150128517522070979e+02 -2.783146646329444707e+02 -2.286027077371472274e+02 -1.666927760346251546e+02 -1.198217988484305039e+02 -1.047753758887156863e+02
8.624426108968506810e+00 -1.301294217983200099e+02 -1.376983515855108351e+02 6.123086282123804835e+01 7.481103413697741189e+01 -1.328199084678153099e+02 -2.158923426098363052e+02 -2.838442405197624225e+02 -2.310084746491036185e+02 -1.689421940153394530e+02 -1.218269273602313945e+02 -1.059786266614492547e+02
1.025619868373053123e+01 -1.314787440191191195e+02 -1.398932143723009744e+02 6.156067881970852085e+01 7.597152685405633576e+01 -1.357048707019616529e+02 -2.160537893822138642e+02 -2.883018019520549160e+02 -2.334697937052257544e+02 -1.715573144030797152e+02 -1.255352149883477608e+02 -1.085622748744381312e+02
7.181100166381449768e+00 -1.367265544405743185e+02 -1.426240390057672869e+02 6.666785140263822029e+01 7.693665584518232947e+01 -1.387064085739100960e+02 -2.167493914817331984e+02 -2.929505772396076395e+02 -2.386870587560371177e+02 -1.757144514481230999e+02 -1.297241620483586928e+02 -1.119072377988329521e+02
3.522350800754364020e+00 -1.421456077344523408e+02 -1.458171673652474283e+02 7.141999094408592441e+01 7.527739515799507330e+01 -1.434908669295288348e+02 -2.206152118816425798e+02 -2.971836584370668675e+02 -2.434489242505580933e+02 -1.812748390576937823e+02 -1.344260576239624640e+02 -1.145104721493382982e+02
-7.863932173128729275e-01 -1.505434507324023343e+02 -1.486886576955352552e+02 7.667071905436496593e+01 7.482243080133812896e+01 -1.477336146133437182e+02 -2.246335781374415888e+02 -3.029176366962199154e+02 -2.477455620939769858e+02 -1.876201312132262444e+02 -1.396307727687453450e+02 -1.196704102879912455e+02
-4.531364934724053661e+00 -1.554317281785496903e+02 -1.500679657610688480e+02 8.145774536494943163e+01 7.433729839744927403e+01 -1.515628874574435372e+02 -2.294634322298930442e+02 -3.071307210033418187e+02 -2.532465148046025831e+02 -1.933062966147549560e+02 -1.453274689643060071e+02 -1.235451929019273081e+02
-7.014709027265816133e+00 -1.598877086799853373e+02 -1.507451167831741543e+02 8.492170007112596863e+01 7.197969837505550572e+01 -1.548760868019833765e+02 -2.346757091124822523e+02 -3.138234402635275160e+02 -2.587889215496758197e+02 -1.987438659711803837e+02 -1.507119611931385634e+02 -1.277450913763077978e+02
-8.703744065730226964e+00 -1.608537840901625202e+02 -1.521206738108391789e+02 8.677600472393950781e+01 7.206141165883157385e+01 -1.559270958278522130e+02 -2.368407232612240421e+02 -3.181591914186074064e+02 -2.624691381529887622e+02 -2.025094741605627462e+02 -1.545633667665830160e+02 -1.306678535136271364e+02
-7.589764243516103903e+00 -1.603418283816843370e+02 -1.509573988311338724e+02 8.548515410832297334e+01 7.275704635063063108e+01 -1.552091235772942639e+02 -2.388330946750216697e+02 -3.247741612002426450e+02 -2.659156139608154490e+02 -2.058739738668923849e+02 -1.569861337872017657e+02 -1.329549750051495778e+02
-3.140434766910189079e+00 -1.571939588492124074e+02 -1.519319787224286529e+02 8.214112957307646923e+01 7.485075331656717879e+01 -1.539905901201196343e+02 -2.399023471850333067e+02 -3.291996743176296718e+02 -2.685477869917078806e+02 -2.086085339824828679e+02 -1.586638912215114487e+02 -1.338140042478147791e+02
3.405608918717590305e-01 -1.535641951241431968e+02 -1.528512571054641285e+02 7.773673075017029532e+01 7.762674016264591614e+01 -1.532134685286673914e+02 -2.417645509471309140e+02 -3.348767036472819996e+02 -2.709915635319443936e+02 -2.100993302483440459e+02 -1.601086163416089221e+02 -1.350247132473130023e+02
4.931357655504632120e+00 -1.499938440917503613e+02 -1.539603592459462220e+02 7.386479737995261985e+01 7.991301247151373843e+01 -1.519363957034895520e+02 -2.437818318645746274e+02 -3.382489853856173454e+02 -2.734867344898199804e+02 -2.115686773890541303e+02 -1.606744529050064045e+02 -1.349222512139957644e+02
5.809879379062533822e+00 -1.500859221274040749e+02 -1.548343538419980234e+02 7.422906900317184409e+01 8.177971017690849465e+01 -1.529344535882427181e+02 -2.474829070755210978e+02 -3.438541871530632648e+02 -2.760513634281249438e+02 -2.132215225821038018e+02 -1.629782301643517712e+02 -1.358913277668049773e+02
5.348123290206713953e+00 -1.507054887170063182e+02 -1.559650259932566598e+02 7.372507244827777129e+01 8.128546882061729661e+01 -1.538438120269095464e+02 -2.517245060928511293e+02 -3.464290477742721350e+02 -2.783545020183842098e+02 -2.127025416025574032e+02 -1.637846867640081143e+02 -1.377410402409973642e+02
3.858295646720141914e+00 -1.529056742362186867e+02 -1.568411186692726460e+02 7.512249800943966704e+01 8.077359021174459031e+01 -1.549763983970478307e+02 -2.545952434772328274e+02 -3.508052540557622478e+02 -2.828823908354682430e+02 -2.149701377406129268e+02 -1.649938167107266906e+02 -1.398055176843353422e+02
3.358509086015661449e+00 -1.547311794981193032e+02 -1.571618288024571939e+02 7.562596970056500822e+01 8.123112600615883139e+01 -1.549984588198359745e+02 -2.586528492338197225e+02 -3.543595244775685842e+02 -2.854275912916535276e+02 -2.165729279082928826e+02 -1.666268732089875471e+02 -1.426614727023440139e+02
1.817026421975612704e+00 -1.551533631363744519e+02 -1.559710478246394700e+02 7.802213393418622900e+01 7.994250849258544633e+01 -1.549590158817597398e+02 -2.616365449052130430e+02 -3.587715325481540276e+02 -2.897846588005658077e+02 -2.198382928013136279e+02 -1.689412199139292738e+02 -1.440580418648839611e+02
2.250400544728877961e+00 -1.564893162452117394e+02 -1.568653949486349006e+02 7.872163505293384844e+01 8.003670520026730628e+01 -1.566797776535413504e+02 -2.655953404033764969e+02 -3.632389708491727447e+02 -2.933442843955373860e+02 -2.225345585314553887e+02 -1.706606728642663882e+02 -1.439614866428875644e+02
9.014305324376702400e-01 -1.598653947900035064e+02 -1.594861530182533045e+02 8.005179670078919685e+01 8.163730756515327869e+01 -1.596397594177828125e+02 -2.686884550366575013e+02 -3.678241124139574936e+02 -2.978367570945675880e+02 -2.250128440250102244e+02 -1.720911789455945211e+02 -1.431840842404292573e+02
1.110476612256733553e+00 -1.632792393402608013e+02 -1.645281005310332887e+02 8.155033395963961595e+01 8.305098659181827259e+01 -1.643775535836284973e+02 -2.724837025596075932e+02 -3.721558889622776860e+02 -3.004434508132546284e+02 -2.265288925544171263e+02 -1.726765642689599645e+02 -1.428607098778371949e+02
1.749718086461324207e+00 -1.686490138124426039e+02 -1.685330493305021946e+02 8.398238748146711430e+01 8.535587784231786657e+01 -1.686872364417637016e+02 -2.766658456709208167e+02 -3.776924858043650488e+02 -3.047295463346905535e+02 -2.298560863073539338e+02 -1.749163601850492284e+02 -1.438773478481515156e+02
1.375675232260209269e+00 -1.732733990469399430e+02 -1.726186405167788962e+02 8.640004779612469576e+01 8.905321406261958828e+01 -1.724536765765713255e+02 -2.795880256227542873e+02 -3.830646298880924405e+02 -3.083702735382795481e+02 -2.324625090628021837e+02 -1.766434755380702768e+02 -1.465764234509609309e+02
6.428321224752623353e-01 -1.770311432970411261e+02 -1.756812287817020604e+02 8.916496194111263662e+01 8.877470703622475412e+01 -1.758817598281198684e+02 -2.836409619287087480e+02 -3.887209676027586625e+02 -3.127381556808458072e+02 -2.358830907712149383e+02 -1.788752235156956658e+02 -1.488764416546518135e+02
2.195140137387816548e+00 -1.776899982704387924e+02 -1.778646712486604429e+02 8.875254185249667671e+01 9.089824635915420004e+01 -1.768212252214691489e+02 -2.850034920562274579e+02 -3.940144597214594455e+02 -3.163547950397666568e+02 -2.383941060279846056e+02 -1.815160849348433487e+02 -1.515375217512293489e+02
1.723641214541007605e+00 -1.783100804985421064e+02 -1.788695293263084238e+02 8.928360725595479153e+01 9.183189998798208364e+01 -1.779634584234169665e+02 -2.857887115813408627e+02 -3.997505176726540981e+02 -3.207264542027580205e+02 -2.427741779040897825e+02 -1.839573383031795970e+02 -1.539308891018548024e+02
3.134967018111844972e+00 -1.776013206794509927e+02 -1.799035542623715571e+02 8.864745497021007736e+01 9.214468965781846066e+01 -1.788020649269897717e+02 -2.869928280484223819e+02 -4.049289785257006429e+02 -3.243596697122357568e+02 -2.454302220924456890e+02 -1.863717532276903626e+02 -1.556673118376073433e+02
2.076342215242929612e+00 -1.808394197753872845e+02 -1.808800784103301567e+02 9.097242762587518428e+01 9.186993028461235156e+01 -1.799511356433778531e+02 -2.876892903215152728e+02 -4.116253865140068342e+02 -3.286564325780631179e+02 -2.504717787159848683e+02 -1.907301967720701441e+02 -1.569937094546244793e+02
-1.210531705012990011e+00 -1.833881193528532663e+02 -1.811057934169526504e+02 9.326692900553921106e+01 9.137600697060884158e+01 -1.815789256938502945e+02 -2.915067967895645893e+02 -4.177544998023339531e+02 -3.339860298817338276e+02 -2.561325289104115654e+02 -1.942919350584037943e+02 -1.593830169712265388e+02
-6.605055584611377206e+00 -1.877093661197968970e+02 -1.801001337266573046e+02 9.865933466107979655e+01 8.828440515425786828e+01 -1.847759208591928086e+02 -2.954576836514747811e+02 -4.263368493527602254e+02 -3.413668760563310798e+02 -2.624288371486473466e+02 -1.995625669307015073e+02 -1.636297155406053605e+02
-1.195196335535392151e+01 -1.920540940435167272e+02 -1.791406464292802525e+02 1.030274828313785491e+02 8.466163770437047731e+01 -1.866757388206274584e+02 -3.011895974958053444e+02 -4.345352952633540440e+02 -3.479480640775504980e+02 -2.681552310760829414e+02 -2.042169894965007586e+02 -1.690008050059490472e+02
-1.942117674773091451e+01 -1.986232871248553522e+02 -1.781271922460728945e+02 1.104596258216534892e+02 8.028162622268347093e+01 -1.889058801576044573e+02 -3.073385620565099430e+02 -4.442810810179130954e+02 -3.553410472520914709e+02 -2.735780291778157221e+02 -2.095938680576204263e+02 -1.755595955840231852e+02
-2.432715063677936129e+01 -2.015043120692341176e+02 -1.763260790114192105e+02 1.144144475706327313e+02 7.751279714557922773e+01 -1.890138588912059845e+02 -3.131677874267148809e+02 -4.517498746011827393e+02 -3.619660402671460133e+02 -2.782280390089408684e+02 -2.133994158114653032e+02 -1.801441547677783603e+02
-2.712087614111634437e+01 -2.033443945504421606e+02 -1.741529227315519393e+02 1.171774508359896174e+02 7.416050193227420095e+01 -1.882649909840582438e+02 -3.194398350118665348e+02 -4.594573280697679252e+02 -3.685177652723344863e+02 -2.827504652792995330e+02 -2.168457054923649991e+02 -1.857358359783933679e+02
-2.612618513670665266e+01 -1.994374258603409089e+02 -1.731358767584135308e+02 1.143955342059487350e+02 7.388512808115838482e+01 -1.854061468571589444e+02 -3.226311138102054770e+02 -4.658580313356517308e+02 -3.732260980932747998e+02 -2.854938231946190399e+02 -2.186332206290909141e+02 -1.868455336183951090e+02
-2.198161373092945325e+01 -1.948886565526343020e+02 -1.721178575562085769e+02 1.098385748242907596e+02 7.649625130725027589e+01 -1.823365939594976339e+02 -3.264709431972859761e+02 -4.717790845393555514e+02 -3.777284953644605707e+02 -2.879685616789266760e+02 -2.201204698643725521e+02 -1.871821602096358106e+02
-1.630294728464492593e+01 -1.884986441893026381e+02 -1.711104958796674111e+02 1.044114484617421681e+02 7.892209566708548607e+01 -1.802302081044726378e+02 -3.296656271655127171e+02 -4.759670510645482864e+02 -3.805393730295550085e+02 -2.888050559996094648e+02 -2.190889618278661146e+02 -1.860151092183966171e+02
-1.272717122719882532e+01 -1.853975845412376771e+02 -1.709221013840393653e+02 1.006304528630043080e+02 8.060060661123630155e+01 -1.782189846765947152e+02 -3.333701259420281531e+02 -4.817386988099535188e+02 -3.820769663931462219e+02 -2.883471387382166995e+02 -2.173720375315116371e+02 -1.852666883245854592e+02
-9.810432844863441915e+00 -1.838528565872907450e+02 -1.718105818296968152e+02 9.791273069801644624e+01 8.211727685775605323e+01 -1.778651452063617455e+02 -3.375599067180195902e+02 -4.859446772600730924e+02 -3.834823538333991451e+02 -2.869821763113708357e+02 -2.152201721842706377e+02 -1.839543312568275439e+02
-1.030818491375421075e+01 -1.849867507601279328e+02 -1.737511706465446650e+02 9.815023836946390645e+01 8.182901867547712982e+01 -1.788539870667597427e+02 -3.421288739736497746e+02 -4.924950444200863444e+02 -3.859411377234828251e+02 -2.854082068246687527e+02 -2.123866274578341518e+02 -1.841034288311186060e+02
-8.864190255798517271e+00 -1.857012154405580304e+02 -1.748855942763860867e+02 9.860242940772316445e+01 8.292125330264704530e+01 -1.807088454704405649e+02 -3.483968469569665558e+02 -4.986925490474002345e+02 -3.883133690793833921e+02 -2.854352423129792555e+02 -2.125753550692784302e+02 -1.838610449491613963e+02
-9.179546608216853087e+00 -1.877952852162258353e+02 -1.766636691403340649e+02 1.001533657260993664e+02 8.461322246997912089e+01 -1.819089680245734542e+02 -3.523760461010023732e+02 -5.064275391052199780e+02 -3.925817693487236966e+02 -2.887993343015096457e+02 -2.140514383659241560e+02 -1.848982859936928946e+02
-9.570069479657256295e+00 -1.904176737851763903e+02 -1.787145777343712894e+02 1.004999607202340712e+02 8.606281990563302031e+01 -1.843653470440686988e+02 -3.574195834473852074e+02 -5.126884216253043860e+02 -3.979158635031661788e+02 -2.921433282981841444e+02 -2.162357612485834011e+02 -1.865820457171708995e+02
-1.118250917775578834e+01 -1.944733102564324270e+02 -1.823132428567093086e+02 1.038145951331743220e+02 8.665667095429614619e+01 -1.885801841520167841e+02 -3.606270687149794298e+02 -5.204056423803748430e+02 -4.043670894804081968e+02 -2.974949674641487718e+02 -2.206730817651384768e+02 -1.896067181705430187e+02
-1.145743027764964239e+01 -1.999870695216970660e+02 -1.865375942452923539e+02 1.062588133418880290e+02 8.881966039683250358e+01 -1.922687093578191480e+02 -3.636230778178532432e+02 -5.266709776679751940e+02 -4.115461189616007118e+02 -3.036101934517490690e+02 -2.249627740663204065e+02 -1.933567663101048311e+02
-1.489058521473601182e+01 -2.062869210005978005e+02 -1.911242016049934591e+02 1.115144261076815013e+02 9.069047012045299994e+01 -1.981540946411482764e+02 -3.657220438611284976e+02 -5.344106428358866197e+02 -4.202333134819099314e+02 -3.130080814833139016e+02 -2.321377874897362403e+02 -1.974743855870100901e+02
-1.566870760024928089e+01 -2.128739416208889850e+02 -1.965248984891414352e+02 1.152652828361373025e+02 9.117454543350270058e+01 -2.042128012685627709e+02 -3.685298889789623900e+02 -5.398975698489684873e+02 -4.268128998858827572e+02 -3.207275567286354203e+02 -2.397460813867820946e+02 -2.022541238219062905e+02
-1.786021233248676410e+01 -2.186365472589027661e+02 -1.995470919865294377e+02 1.197125431850639927e+02 9.161731155261114168e+01 -2.085755928612935293e+02 -3.708786891833412938e+02 -5.456427291271986633e+02 -4.327637429069342261e+02 -3.275851512709958797e+02 -2.457338352641812662e+02 -2.057839495714454472e+02
-1.887612106718976435e+01 -2.215205387984875642e+02 -2.018946668553327015e+02 1.208929372433920975e+02 9.308599933006064475e+01 -2.115957575534045816e+02 -3.717591882210863332e+02 -5.499741913274132230e+02 -4.345610995415490265e+02 -3.304364635150233767e+02 -2.483870862919851845e+02 -2.077187963679610903e+02
-1.754466404886500186e+01 -2.223712244446917055e+02 -2.027424685327002862e+02 1.203374512386714201e+02 9.360515813626690829e+01 -2.130591650177596819e+02 -3.737667429602543052e+02 -5.548431114161495543e+02 -4.361238932355242923e+02 -3.330155280801740787e+02 -2.502962017595971247e+02 -2.074238217156426742e+02
-1.510923717593278859e+01 -2.201992282934530749e+02 -2.040643214911142991e+02 1.182644627620989297e+02 9.586560085256196828e+01 -2.121892000293441356e+02 -3.748444967451104617e+02 -5.572851447072365545e+02 -4.365879215302329044e+02 -3.329368723258280625e+02 -2.488936653312631506e+02 -2.051574729222597000e+02
-1.198262874816226997e+01 -2.168536410542182864e+02 -2.030423191972187453e+02 1.147825689642553186e+02 9.754734005385493845e+01 -2.103270131647613539e+02 -3.766456077661876520e+02 -5.600763385815007496e+02 -4.381396214895091248e+02 -3.315633225632868744e+02 -2.484445118553509246e+02 -2.033648554317645676e+02
-6.400455740662880366e+00 -2.123806095422515909e+02 -2.038173322644111352e+02 1.104655092843420192e+02 9.985566327174807100e+01 -2.083286567858950491e+02 -3.787457750924355651e+02 -5.613603120359820196e+02 -4.378446584885415973e+02 -3.290285989669529272e+02 -2.461008057428640541e+02 -2.020630198151528987e+02
-3.569489433553084012e+00 -2.080216233743456655e+02 -2.041732695244065212e+02 1.058783572097759986e+02 1.016035174991439760e+02 -2.054428422390093658e+02 -3.806888812369317634e+02 -5.640011794628668440e+02 -4.373915233322090899e+02 -3.275928925093184603e+02 -2.437830660050161669e+02 -1.996820069716951025e+02
-1.050479705022787869e+00 -2.025314703438177730e+02 -2.016383640831108437e+02 1.021611638598192968e+02 1.023383558173067911e+02 -2.026393357840599663e+02 -3.819965216268090558e+02 -5.661947353842331268e+02 -4.359587110435208501e+02 -3.242462471404385269e+02 -2.393548149295356211e+02 -1.962852693429461794e+02
-2.269036671061374077e-01 -1.971559246738277693e+02 -1.967884688789683878e+02 9.966795744646118749e+01 1.002089348091051590e+02 -1.961097497922602315e+02 -3.819200150035314323e+02 -5.691391092691552558e+02 -4.345516710164164351e+02 -3.216689446017619503e+02 -2.358523552500335256e+02 -1.928243829513640151e+02
-6.114488669653052044e-01 -1.921491867040572004e+02 -1.916868348096710974e+02 9.703040423195315611e+01 9.763622167231424953e+01 -1.913658187614597068e+02 -3.828588263580379021e+02 -5.702403444454874943e+02 -4.327879393821541498e+02 -3.182232343202989000e+02 -2.320326954647395041e+02 -1.891081395953881099e+02
-1.306603059117833032e+00 -1.897967180193067520e+02 -1.883113329272094063e+02 9.548855949597272286e+01 9.500219315229959705e+01 -1.876924212971249233e+02 -3.837544820026427601e+02 -5.738930804506304639e+02 -4.339127836798418798e+02 -3.163767477223227047e+02 -2.314010008013154902e+02 -1.882590388408995068e+02
-7.114210103762452775e-01 -1.867752516190034839e+02 -1.863214857783892739e+02 9.466485994975306539e+01 9.436498223941906360e+01 -1.858213675911538019e+02 -3.864589954942658778e+02 -5.761753666589839895e+02 -4.363479486124830942e+02 -3.157410694538739904e+02 -2.298345116731321980e+02 -1.877835047559242128e+02
-1.314649951071858558e+00 -1.874460743352452425e+02 -1.850034638624427714e+02 9.458564751920603442e+01 9.288111544898181648e+01 -1.854405206306417995e+02 -3.888912559482929510e+02 -5.798948528841027610e+02 -4.381570536629549224e+02 -3.161984681944736053e+02 -2.302741183909483880e+02 -1.882283975286489408e+02
7.060921430036635194e-01 -1.842688332566060865e+02 -1.850591051074307813e+02 9.202843635031648262e+01 9.388930376349397022e+01 -1.838835179832933875e+02 -3.896898936146961887e+02 -5.821646848907784033e+02 -4.393408313544763928e+02 -3.165802630888215390e+02 -2.289704025601563444e+02 -1.870664452472013295e+02
4.229504939555170040e+00 -1.817736488634828902e+02 -1.849010983560432635e+02 8.987575633600977199e+01 9.554543314803302678e+01 -1.834576981086860314e+02 -3.918459599010287775e+02 -5.859075507394528586e+02 -4.412851018938198422e+02 -3.173938485545526191e+02 -2.276780605752095710e+02 -1.855069542697010263e+02
6.906347293319285541e+00 -1.773852846761284923e+02 -1.852129411220540760e+02 8.605277993132604308e+01 9.707872230605342168e+01 -1.811281537578831546e+02 -3.919191527358369171e+02 -5.874449982620755009e+02 -4.406872434984102256e+02 -3.151896848261752098e+02 -2.241567027272403152e+02 -1.831462633897285457e+02
1.002194321173847769e+01 -1.740195697318291082e+02 -1.825262704235888691e+02 8.402174122430757564e+01 9.759987169564305987e+01 -1.788664715094215296e+02 -3.936847339337211338e+02 -5.891386044188471942e+02 -4.412814575395782981e+02 -3.126575925867462615e+02 -2.226224156121915883e+02 -1.814784789425051486e+02
1.385125997655836549e+01 -1.670607941075653002e+02 -1.802268383555846185e+02 7.769555689843856783e+01 9.911891319128638145e+01 -1.735890336979831545e+02 -3.940887185250738867e+02 -5.903262468262548737e+02 -4.414549272311193135e+02 -3.107959975367250536e+02 -2.191800168944134555e+02 -1.791862805557466913e+02
1.763441571034202227e+01 -1.595526138368052216e+02 -1.777518375353534452e+02 7.237927973267993309e+01 9.878306867003998093e+01 -1.691875073377586034e+02 -3.953953203156580685e+02 -5.922652222987229607e+02 -4.432316164099912612e+02 -3.105065619881941075e+02 -2.183255658824581928e+02 -1.774288550875875785e+02
2.447247928609862555e+01 -1.503335411056459918e+02 -1.726964942734622639e+02 6.405235941167441638e+01 9.996653074007002715e+01 -1.611517093353452310e+02 -3.986403232300529567e+02 -5.924337670355569117e+02 -4.427443423197693733e+02 -3.088134684734125699e+02 -2.162596848602356374e+02 -1.753179315403896794e+02
2.877927947066006809e+01 -1.416087579652680688e+02 -1.694668203445799861e+02 5.736101267033037487e+01 1.006897850669085130e+02 -1.550093126221607633e+02 -4.019842084312374482e+02 -5.942036346130823858e+02 -4.425311145102734827e+02 -3.085793393362289407e+02 -2.136905119493974610e+02 -1.718339575103873074e+02
3.531165108999893931e+01 -1.331253564977251358e+02 -1.664124267562813202e+02 4.992945950602208427e+01 1.019625078906549334e+02 -1.489139157873023578e+02 -4.095344029021792949e+02 -5.951624343131869637e+02 -4.408134886502497238e+02 -3.052956451064428052e+02 -2.103331230746495351e+02 -1.676039123310945058e+02
4.063969281119659627e+01 -1.254629142123245771e+02 -1.650935136649392518e+02 4.342623701659266544e+01 1.033787046646244221e+02 -1.437839440168818896e+02 -4.198130699216727066e+02 -5.988981924855086163e+02 -4.404964571054508724e+02 -3.027005288170582844e+02 -2.069541122710632237e+02 -1.628721598444550409e+02
4.802511365255044495e+01 -1.187235010441639105e+02 -1.641180262022461136e+02 3.594063184479047379e+01 1.073256209821138327e+02 -1.403016206479438495e+02 -4.337150002211992046e+02 -6.010246747615237837e+02 -4.395281184527301548e+02 -3.000267327043548562e+02 -2.023651851346346291e+02 -1.594132527383726199e+02
5.596698675637139075e+01 -1.125704639730371071e+02 -1.653358227896553956e+02 2.876092261779232828e+01 1.127382583098108455e+02 -1.384089959097491374e+02 -4.460673717421576612e+02 -6.063757145382382987e+02 -4.412000974483272557e+02 -2.986500474096160360e+02 -1.997213592380117859e+02 -1.549717606735804623e+02
6.739103648972242411e+01 -1.047841795436773396e+02 -1.700379315348546072e+02 1.921714596206025405e+01 1.198208006067725648e+02 -1.369282108669169986e+02 -4.572067392917282973e+02 -6.116239561238850229e+02 -4.414095436378252089e+02 -2.960064242436860127e+02 -1.962723832475462302e+02 -1.520293757349904809e+02
7.780368869261805287e+01 -1.000122808556480578e+02 -1.766501045987257328e+02 1.160162559245536329e+01 1.289143242260713578e+02 -1.378043488351546273e+02 -4.665916870295496892e+02 -6.182751743709330867e+02 -4.439637893049808781e+02 -2.953754324430195766e+02 -1.944147419427856107e+02 -1.497837765366084568e+02
8.939954179721887328e+01 -9.605364680164633739e+01 -1.845792109407877888e+02 3.803211851145709588e+00 1.396609751998852857e+02 -1.401944623819125013e+02 -4.752020075478133663e+02 -6.243472190714288672e+02 -4.459731234003896247e+02 -2.946556838535217366e+02 -1.937194854803603903e+02 -1.477656370627351237e+02
9.916856026839593596e+01 -9.605773549946569290e+01 -1.933583210257015139e+02 -9.646825501747884335e-01 1.474081962582088465e+02 -1.451850647007129851e+02 -4.868489077161830210e+02 -6.328762507968596083e+02 -4.514024977491146728e+02 -2.959992267000048400e+02 -1.941957580286843381e+02 -1.474659367465953892e+02
1.065048774722879585e+02 -9.735671821390405967e+01 -2.024593750166074528e+02 -4.981865688165717287e+00 1.558624273795771273e+02 -1.500295672699632235e+02 -4.981731178770203314e+02 -6.410319939649571097e+02 -4.564742111731281966e+02 -2.980265087026284618e+02 -1.952332388510355941e+02 -1.473121650690751494e+02
1.107029351234003371e+02 -9.987690912132745780e+01 -2.107826280617512396e+02 -4.823544336351995199e+00 1.619351870232684405e+02 -1.552393355083121094e+02 -5.090050128799676941e+02 -6.507619564125493525e+02 -4.641717033157208334e+02 -3.026495881143434872e+02 -1.980600630924230643e+02 -1.500118587006980135e+02
1.159300637192326917e+02 -1.021483365646205783e+02 -2.161682246828051461e+02 -5.204899032394195046e+00 1.665355159154946989e+02 -1.592805245947425021e+02 -5.187563673803913389e+02 -6.590613978313537018e+02 -4.695804064251206000e+02 -3.051760562461042809e+02 -1.991469744769079568e+02 -1.512598736149384138e+02
1.164661620138280398e+02 -1.056940206090935561e+02 -2.218797483158512591e+02 -4.837732395368381511e+00 1.700511647890354539e+02 -1.632449571195661520e+02 -5.248891408066665463e+02 -6.686498870768393772e+02 -4.763374829548663456e+02 -3.094458282364165598e+02 -2.035924568242344890e+02 -1.546685062590846655e+02
1.183648071186966320e+02 -1.096230646300440270e+02 -2.264844630762803774e+02 -3.803949278417691815e+00 1.739049820009010716e+02 -1.680789559045182955e+02 -5.310570000104796691e+02 -6.778822132990189857e+02 -4.813541636589047812e+02 -3.137824021347427674e+02 -2.068476442409336471e+02 -1.586265302979030025e+02
1.154129056933388995e+02 -1.162101514068978503e+02 -2.301520778853688682e+02 4.028646679665552899e-01 1.738853920763080509e+02 -1.723032334108879979e+02 -5.353090949588038256e+02 -6.876716124272328443e+02 -4.906419055468154511e+02 -3.200405051009889235e+02 -2.131362055364124330e+02 -1.652225334285157885e+02
1.127640385699423149e+02 -1.222720658171394490e+02 -2.336294165836932279e+02 5.524347017164018325e+00 1.741613275575512603e+02 -1.776769289512772616e+02 -5.399273233442999071e+02 -6.975160681885229224e+02 -4.989177528996036131e+02 -3.271176335955163950e+02 -2.192335652507747739e+02 -1.712326691472067353e+02
1.086999713597618609e+02 -1.308066433564559929e+02 -2.369769044676911278e+02 1.225303368469829834e+01 1.738116200986105753e+02 -1.840694305883775144e+02 -5.459260046866343146e+02 -7.086921100871835506e+02 -5.102620808907776109e+02 -3.372619504953153751e+02 -2.286810400957302818e+02 -1.799321121341919252e+02
1.033260031019952692e+02 -1.389460871063921559e+02 -2.415800576845213072e+02 1.752024379221998629e+01 1.742363999787814066e+02 -1.897373359609781005e+02 -5.518145398547785589e+02 -7.176261764737259909e+02 -5.198826727292820351e+02 -3.478036530169442813e+02 -2.361568135588802875e+02 -1.863837491421636798e+02
9.833073441401944592e+01 -1.480176985088410220e+02 -2.441502561355414116e+02 2.426328333522431535e+01 1.730382843369243915e+02 -1.959770117336438489e+02 -5.580632636655240049e+02 -7.286687525779373118e+02 -5.305321585374538245e+02 -3.576726646178006490e+02 -2.457525286248858549e+02 -1.934607883919246660e+02
9.515870996573011098e+01 -1.549037058353769964e+02 -2.491554932480680691e+02 2.941418936811653140e+01 1.729903634923085178e+02 -2.024823215453089347e+02 -5.615995796303794805e+02 -7.369037216206895664e+02 -5.376324532508676839e+02 -3.654404208879281555e+02 -2.510531188889217731e+02 -1.961160447640829716e+02
8.970801676586098949e+01 -1.655059328222166926e+02 -2.538877557236450002e+02 3.768907112436072282e+01 1.737967641469740272e+02 -2.098503769533531056e+02 -5.636670338692662199e+02 -7.460679758783338684e+02 -5.440751419948398961e+02 -3.707398042269343250e+02 -2.554666549176644139e+02 -2.011724992631978068e+02
8.450197604999257806e+01 -1.745665248957635640e+02 -2.593249404163788654e+02 4.593189456007447546e+01 1.727307139661502902e+02 -2.165093148559400902e+02 -5.648485042883216920e+02 -7.521500257640785776e+02 -5.496607594998220065e+02 -3.737909331538186848e+02 -2.589163724019959432e+02 -2.065405932981163630e+02
7.724909517887292054e+01 -1.870491023845677319e+02 -2.623086168776708291e+02 5.561277468707426408e+01 1.700640856527837173e+02 -2.237716285518980612e+02 -5.658535644098458306e+02 -7.609345198623135502e+02 -5.559636381492800865e+02 -3.792739127743845415e+02 -2.649413531047009656e+02 -2.138382155298110376e+02
6.826811955922475761e+01 -1.982165631779237742e+02 -2.662956503787251563e+02 6.454789103330378452e+01 1.687464290153510831e+02 -2.312302537892404928e+02 -5.659750157567004862e+02 -7.672306507156539510e+02 -5.631574092968168088e+02 -3.851702731353040008e+02 -2.713516918311245831e+02 -2.211248154512180122e+02
5.970102260994931953e+01 -2.119510655382931645e+02 -2.700587861102198417e+02 7.635261501488005820e+01 1.652703339766331965e+02 -2.396629739926179070e+02 -5.674405334458145944e+02 -7.757786049680520364e+02 -5.709917588607307835e+02 -3.937185298239184590e+02 -2.796691067809390461e+02 -2.298193887664940860e+02
5.402859006898477645e+01 -2.225222723578517048e+02 -2.751533497288816079e+02 8.492824057753288969e+01 1.642756527741251489e+02 -2.471923396210286796e+02 -5.697131711632511042e+02 -7.830808403432779414e+02 -5.779840593111676981e+02 -4.019280223083760006e+02 -2.865304500488985013e+02 -2.363575775359981321e+02
4.498770514717391222e+01 -2.349056294545519847e+02 -2.791104304188600054e+02 9.524934371573257863e+01 1.631523666750031509e+02 -2.563524544761759216e+02 -5.721440037152975719e+02 -7.917712916320319891e+02 -5.868985431308266243e+02 -4.101724799118156284e+02 -2.930967126708110300e+02 -2.439631478556389084e+02
3.836705885346201939e+01 -2.469019595437194425e+02 -2.840835657934570122e+02 1.054217632268265703e+02 1.608897053532912480e+02 -2.650947747913974126e+02 -5.769866161840832319e+02 -7.997109931634757913e+02 -5.932621729783778619e+02 -4.154676698225645168e+02 -2.978741027345373027e+02 -2.495551904314805256e+02
2.594546191263488666e+01 -2.623981165483684777e+02 -2.881912662941891767e+02 1.178887608284466069e+02 1.572956204022019051e+02 -2.743153849651398559e+02 -5.826666753004328712e+02 -8.103995245250433754e+02 -6.009849038652009767e+02 -4.214346164963846491e+02 -3.030799179175229483e+02 -2.567217289448313409e+02
1.692145580536957894e+01 -2.752378448053334523e+02 -2.923060156006870898e+02 1.293738348385468839e+02 1.555411365271901900e+02 -2.831708693106007217e+02 -5.895889743449811249e+02 -8.195811302470392548e+02 -6.071823369308000338e+02 -4.262428731925231773e+02 -3.092933646918952491e+02 -2.641845488461335663e+02
8.871280610134629541e+00 -2.873802728875624553e+02 -2.953320248576821996e+02 1.399255574380909195e+02 1.539296314551490923e+02 -2.908643580611266088e+02 -5.966485747415902097e+02 -8.304533852490859545e+02 -6.156593919357617324e+02 -4.339667300533567982e+02 -3.168292988248203415e+02 -2.719066880483023851e+02
4.931548541152475096e+00 -2.945262569839511571e+02 -2.992118649561138000e+02 1.447910894264632873e+02 1.534458832605123746e+02 -2.967472581050033682e+02 -6.028021566371166955e+02 -8.388154835347949074e+02 -6.237622858668122490e+02 -4.408854134365520849e+02 -3.240336248542401449e+02 -2.783168345590459012e+02
1.972292648826507122e+00 -3.003679979050634188e+02 -3.024401744002456098e+02 1.495663114961625126e+02 1.525782201771405369e+02 -3.014503675959531392e+02 -6.089166471675719094e+02 -8.485756609391884240e+02 -6.335847446173265780e+02 -4.498015826503965400e+02 -3.326767112065648462e+02 -2.851813859882604447e+02
9.040170196942125536e-01 -3.045209697178155466e+02 -3.054053581618959470e+02 1.527631238871464916e+02 1.541600031012637828e+02 -3.049735082077984316e+02 -6.125360700530060285e+02 -8.561046631423855615e+02 -6.417136972331450124e+02 -4.581911108143939941e+02 -3.406774368636935151e+02 -2.897530970430788670e+02
-3.370894373756005091e+00 -3.117181415126153183e+02 -3.076749142736290423e+02 1.582160832707783698e+02 1.530895334373904859e+02 -3.092841223560280923e+02 -6.160082694330259301e+02 -8.639375168610346236e+02 -6.516648213939530478e+02 -4.710556509988558673e+02 -3.513476064645452084e+02 -2.945135081703871265e+02
-8.241365200957680770e+00 -3.196614801538249253e+02 -3.095106431539727510e+02 1.639837215630367950e+02 1.517342875713654564e+02 -3.144399356311794804e+02 -6.196145869242964181e+02 -8.702431461228956096e+02 -6.582896151264073978e+02 -4.813164447898339517e+02 -3.592173273615444486e+02 -2.978910171245946685e+02
-1.590889229692188422e+01 -3.296695019739127588e+02 -3.116949553815432523e+02 1.727949758154038022e+02 1.484287173582002879e+02 -3.204052930607770122e+02 -6.222079516480821439e+02 -8.765406426334172920e+02 -6.652171005941073645e+02 -4.919463186929839935e+02 -3.662218301930323037e+02 -3.017571554600810941e+02
-2.221937112547552573e+01 -3.362277974020610714e+02 -3.127678351728783355e+02 1.792105251398423889e+02 1.458052306630170563e+02 -3.238393953895860591e+02 -6.248623978821343599e+02 -8.797499719911071452e+02 -6.690508203863452081e+02 -4.967005643979157412e+02 -3.700024620994974498e+02 -3.040491400937894468e+02
-2.798580315513283523e+01 -3.433158467477157387e+02 -3.144853465376733084e+02 1.856690334187476594e+02 1.436710645349445770e+02 -3.285678944984391592e+02 -6.262979740867663168e+02 -8.839678068612881816e+02 -6.713022605312856967e+02 -5.004015467861302682e+02 -3.730917850757440988e+02 -3.070092164899279510e+02
-2.830556224683398980e+01 -3.461825210059549818e+02 -3.166792777185938235e+02 1.872163290629585504e+02 1.451509638380269394e+02 -3.304004809809150629e+02 -6.289116284404855151e+02 -8.850497727555371057e+02 -6.713120130892513089e+02 -4.987417107155649205e+02 -3.727514314595919132e+02 -3.081769296865630281e+02
-3.101544769788779377e+01 -3.489135821799252994e+02 -3.178470624101452700e+02 1.900220608271565368e+02 1.440441756750551576e+02 -3.327900931439044712e+02 -6.295082304744670409e+02 -8.888365249679153521e+02 -6.732310556418345868e+02 -4.988154994481656672e+02 -3.732742370495161026e+02 -3.109208059514830325e+02
-3.197073740920573570e+01 -3.508427787609829807e+02 -3.180883696376711782e+02 1.909804352521045985e+02 1.434819608739626915e+02 -3.343352771196232425e+02 -6.318177454975785849e+02 -8.901419632779183075e+02 -6.739564770606816637e+02 -4.958235842208351301e+02 -3.727287825352167374e+02 -3.129014567903774378e+02
-3.714475473144210582e+01 -3.554954881885288955e+02 -3.178952551889615847e+02 1.961241819472283225e+02 1.412665160004143559e+02 -3.368145194331232233e+02 -6.325349699316956276e+02 -8.937164826215973790e+02 -6.778387119261692533e+02 -4.964223460104749961e+02 -3.732257450792303075e+02 -3.167411099810867654e+02
-4.225352218809811689e+01 -3.593883717220390395e+02 -3.182100760816853722e+02 2.013028262644257893e+02 1.390978497211924321e+02 -3.383284497103178978e+02 -6.354405521170474458e+02 -8.953551494668348596e+02 -6.798342878170489030e+02 -4.954623435776027804e+02 -3.734601676056597626e+02 -3.196637713633037947e+02
-4.974086984718920235e+01 -3.654838976388363676e+02 -3.158751301592693608e+02 2.080949823832362995e+02 1.332285379916320380e+02 -3.402323384016064551e+02 -6.370012956206203398e+02 -8.965737009204706283e+02 -6.838984586456863326e+02 -4.972456758742003444e+02 -3.749852109232901398e+02 -3.239174150167240782e+02
-5.744019847774374909e+01 -3.686711713450201842e+02 -3.112757056498444399e+02 2.132886754710993955e+02 1.274885940693668829e+02 -3.390443309356093096e+02 -6.351948069001326758e+02 -8.936443391761836210e+02 -6.852092097985171222e+02 -4.972476860796601841e+02 -3.769785878251225313e+02 -3.258220213111678163e+02
-6.819299974529874930e+01 -3.730354876134388746e+02 -3.040760204784134544e+02 2.199921393011648547e+02 1.200088644026054823e+02 -3.378734720238247178e+02 -6.269492288837856222e+02 -8.876198137625252684e+02 -6.860857377837047579e+02 -4.994127689313373253e+02 -3.793441653053768619e+02 -3.292099748392446372e+02
-7.854928012235751567e+01 -3.733528394794467999e+02 -2.936817300397399890e+02 2.267109750033843341e+02 1.083672240359504571e+02 -3.331775250148568830e+02 -6.087825355205561664e+02 -8.744006177016228776e+02 -6.815479654469774005e+02 -4.978951634226957026e+02 -3.793188388472667043e+02 -3.299381073349725284e+02
-9.401189388631102872e+01 -3.741363397721034971e+02 -2.792706621707870909e+02 2.344505841988504073e+02 9.331279963386741372e+01 -3.256615269741914176e+02 -5.783996967628403354e+02 -8.537429043424730253e+02 -6.753494810443248753e+02 -4.957937473939272763e+02 -3.800116246901737327e+02 -3.320624892281341545e+02
-1.088694486876441800e+02 -3.682098632468885739e+02 -2.574882306137343448e+02 2.382833452366802192e+02 7.593379292225675670e+01 -3.123483836572908103e+02 -5.342427626495511959e+02 -8.204729174797629412e+02 -6.581527379001793179e+02 -4.875789805842718465e+02 -3.756665930878402833e+02 -3.273403214661807965e+02
-1.259548486233758950e+02 -3.595556831211765711e+02 -2.321829074549242762e+02 2.433523722861216640e+02 5.374388327592106407e+01 -2.948727043773719174e+02 -4.754822384177269896e+02 -7.752622153301738308e+02 -6.346689703164934144e+02 -4.765053373294994117e+02 -3.696707221238419834e+02 -3.240892129979398533e+02
-1.403358257080392946e+02 -3.433345817578767765e+02 -2.030111134748609913e+02 2.418076363554019110e+02 3.216620214203761208e+01 -2.730073896381722420e+02 -4.065170520779086019e+02 -7.111706848098267528e+02 -5.973406037285997172e+02 -4.549585668363815216e+02 -3.582772497111531607e+02 -3.140236145943863448e+02
-1.522531967405007833e+02 -3.251310915780445612e+02 -1.721393866789525475e+02 2.394511947891250259e+02 1.105101039494876680e+01 -2.479343116508298976e+02 -3.266008857194892130e+02 -6.314801626809546633e+02 -5.484874544492038240e+02 -4.278627877192680558e+02 -3.430231826207283916e+02 -3.017585624454029016e+02
-1.545320845817657300e+02 -2.960610452292993955e+02 -1.397067880726644944e+02 2.264647557740569823e+02 -6.830571290196313150e+00 -2.171006565011079203e+02 -2.442465255392949359e+02 -5.327846102418391183e+02 -4.806093585610261130e+02 -3.849078768942564466e+02 -3.135063232331066274e+02 -2.781032441982654859e+02
-1.501800496894073831e+02 -2.582256358581565223e+02 -1.065302986377604810e+02 2.043597611601587118e+02 -2.137746933659746063e+01 -1.820223949425518128e+02 -1.617569345205696436e+02 -4.216770476212644780e+02 -3.990142388360218888e+02 -3.288131660399816383e+02 -2.729753282502356910e+02 -2.442137881038730995e+02
-1.269532229145590065e+02 -1.997903638026328679e+02 -7.304942466755663588e+01 1.636542036521080661e+02 -2.634486468515748214e+01 -1.361586562878719064e+02 -8.967804265929717644e+01 -2.950670506502331705e+02 -2.935116446825251728e+02 -2.498980093464548702e+02 -2.109490805619529681e+02 -1.906498261006521773e+02
-8.618860650344761609e+01 -1.266477891119265564e+02 -3.868079742391396536e+01 1.070860356452533182e+02 -2.406606897040330395e+01 -8.283593285854739463e+01 -3.441032819186865055e+01 -1.667672025732162808e+02 -1.748363599235429149e+02 -1.532877176558724273e+02 -1.319608108158822404e+02 -1.218160207545085569e+02
-1.822685309786793439e+01 -2.569253415521807327e+01 -6.858534695002440174e+00 2.195482730432881979e+01 -5.910769723645442397e+00 -1.615681142231739642e+01 -3.407359242009296185e+00 -3.033392352513348911e+01 -3.345535795343928243e+01 -3.009353110058319203e+01 -2.654078161967022709e+01 -2.463342397265187955e+01
7.572433127214699766e+01 9.584835032169181090e+01 1.978088466437261062e+01 -8.542061198643679631e+01 2.810115835152531716e+01 5.804685689113122748e+01 -4.197598376535838227e+00 9.486976484725322223e+01 1.157197165017904581e+02 1.091993800847760099e+02 9.903333614182088240e+01 9.149549737337879662e+01
2.089106712389634879e+02 2.474597931494855629e+02 3.947892165131064246e+01 -2.272643361453392856e+02 8.489828867288413505e+01 1.441695214911212304e+02 -4.991547908530044708e+01 2.039448599361743106e+02 2.755446368306564295e+02 2.724089036411260167e+02 2.519318400003969600e+02 2.354329332383874203e+02
3.633868075185241082e+02 4.119912389878595036e+02 4.959096702446299787e+01 -3.869817771022001125e+02 1.580441552873080298e+02 2.311044405589437361e+02 -1.430299951829692588e+02 2.763573437963277115e+02 4.212320645315422212e+02 4.385668674539698486e+02 4.138077721481217850e+02 3.907522605592238847e+02
5.587564202256862700e+02 6.043063116088405877e+02 4.657108042613301535e+01 -5.811880070032684671e+02 2.562148423865210702e+02 3.261286742180780038e+02 -2.928845166703054019e+02 3.158497664985484334e+02 5.656261493790849499e+02 6.233765967359230444e+02 6.016783425385508508e+02 5.702747017135695842e+02
7.513217365557302401e+02 7.805015380558152174e+02 3.013304255957023869e+01 -7.652243751998342987e+02 3.606311069382077790e+02 4.055971943734960519e+02 -4.863209894150222112e+02 2.897514488285759739e+02 6.584857602995901971e+02 7.810884734462250663e+02 7.730129441338098104e+02 7.362857346928586821e+02
9.813234298133278344e+02 9.802294437236880640e+02 5.641063474996486082e-01 -9.808364723436824306e+02 4.902489817790025199e+02 4.914717332679887818e+02 -7.209039671430939507e+02 2.481241510561400787e+02 7.643255819815872201e+02 9.676640793907672560e+02 9.726008566310837296e+02 9.286751828302930107e+02
1.156046996707179005e+03 1.114129209444681464e+03 -3.955116020493420592e+01 -1.134596973051136956e+03 5.986082394105383173e+02 5.378327610044873381e+02 -9.632336931168077854e+02 1.228806242673503704e+02 7.704438977799567283e+02 1.073168464529410130e+03 1.110097611444319000e+03 1.060757388274933646e+03
1.286028445535581568e+03 1.200422817756217228e+03 -8.539062724051129294e+01 -1.243131491390815881e+03 6.870499050714926170e+02 5.579932909285349751e+02 -1.209884872818685153e+03 -1.168877582619018796e+02 7.035901382323187363e+02 1.117506273610766357e+03 1.198995332944397887e+03 1.153106828514967901e+03
1.347005106568982910e+03 1.237147633727658786e+03 -1.085066426976057699e+02 -1.292109467353731588e+03 7.295061674565361045e+02 5.655072990907552821e+02 -1.384370621067955881e+03 -3.822185998369218396e+02 5.965632906743796866e+02 1.109216684143023258e+03 1.228620808816095177e+03 1.185709192523133652e+03
1.331100781999138007e+03 1.216092951943811158e+03 -1.125901193792647632e+02 -1.272981018027873006e+03 7.219900307088461204e+02 5.531216289519178417e+02 -1.491885129352926924e+03 -6.707822107668633862e+02 4.278895114066769452e+02 1.032620529525453321e+03 1.191495600910205894e+03 1.153767633452486734e+03
1.247202936616524084e+03 1.128802514465641025e+03 -1.180159403785482795e+02 -1.186599272793994260e+03 6.839704231120728082e+02 5.061064647239400074e+02 -1.540917520209508211e+03 -9.788145021019198566e+02 2.098882805060393366e+02 8.908104803513419938e+02 1.084089839265349610e+03 1.055406123369164789e+03
1.079430006371485888e+03 9.647848787838363478e+02 -1.149206696953380344e+02 -1.022624369251506096e+03 5.995854343585979223e+02 4.259406685496418277e+02 -1.515291827866042468e+03 -1.303930383078286468e+03 -7.502905966442490637e+01 6.684293690530964795e+02 8.926238856714049916e+02 8.834416555022327202e+02
8.901725325808353091e+02 7.634221302371580578e+02 -1.251896103334628094e+02 -8.256933561551984440e+02 5.083297422621680539e+02 3.187486607948404753e+02 -1.463339517882120617e+03 -1.565201307764311878e+03 -3.585807193765886041e+02 4.073583646394296238e+02 6.645174821969914092e+02 6.813329633286271019e+02
6.638921063479904205e+02 5.148432184839092542e+02 -1.468561690140967926e+02 -5.884738298739520133e+02 4.065164451397469065e+02 1.851734517112788865e+02 -1.372597309663965461e+03 -1.759632893107558857e+03 -6.532494142515316753e+02 9.422396558281985790e+01 3.853529504757503901e+02 4.337433067345098152e+02
4.527402289791936028e+02 2.854070978574860646e+02 -1.660182765855979312e+02 -3.684440831248885502e+02 3.109111989416770712e+02 5.961895207085120063e+01 -1.271376186998421417e+03 -1.871358300204299667e+03 -8.839155877687985594e+02 -1.810800848184134679e+02 1.309800885819426242e+02 2.118438627018438467e+02
2.604006996149257134e+02 6.648857791698583242e+01 -1.939043476301108342e+02 -1.618781057764255991e+02 2.262814609097997334e+02 -6.298451849281841675e+01 -1.169388881342317745e+03 -1.913037365530017496e+03 -1.060790944336655230e+03 -4.264654174405698086e+02 -1.060762129390711266e+02 1.166846841362259690e+00
9.134447946980911581e+01 -1.187861699892490179e+02 -2.086538232666974579e+02 1.486190262619380320e+01 1.504593895416606415e+02 -1.646789682460137954e+02 -1.064345933571326213e+03 -1.907060240443053999e+03 -1.183545167519157076e+03 -6.217389703962568319e+02 -3.039812260936295161e+02 -1.779824190770137022e+02
-5.256193340175059348e+01 -2.802544343150343593e+02 -2.261220198944336914e+02 1.669306554544419043e+02 8.790486933200467945e+01 -2.528924618882118409e+02 -9.686189335212978904e+02 -1.859937582852259311e+03 -1.259972270751859014e+03 -7.715113988646503458e+02 -4.668571537936121558e+02 -3.310371153161331108e+02
-1.414965056707820565e+02 -3.937055095940792739e+02 -2.515759662897694113e+02 2.688304541876567555e+02 5.672834824025753164e+01 -3.229875498930152844e+02 -9.050377866090439056e+02 -1.797185705375980660e+03 -1.296377352458220457e+03 -8.709265189453813036e+02 -5.797861218943497761e+02 -4.361491027054330516e+02
-1.766356936567161426e+02 -4.675570935908269234e+02 -2.895958133666849221e+02 3.231300369647974549e+02 5.766613036013806237e+01 -3.779668618919269534e+02 -8.730237289988587008e+02 -1.714924771183937537e+03 -1.291489025669385001e+03 -9.205630307238340038e+02 -6.413698094112306762e+02 -4.944370011524547976e+02
-1.828551461828075162e+02 -5.062666030152967664e+02 -3.227520128495586960e+02 3.440057168088338244e+02 6.972370401995692646e+01 -4.138137887336113181e+02 -8.609744732639190943e+02 -1.624077459569771008e+03 -1.258144057459155647e+03 -9.323761097620860028e+02 -6.665969170176480247e+02 -5.212695972462047393e+02
-1.670557192633334012e+02 -5.089725854353214913e+02 -3.404809599389963637e+02 3.385494920491221933e+02 8.660895386973633947e+01 -4.235540126357994382e+02 -8.488280269963959199e+02 -1.516007350267344464e+03 -1.196522296553698880e+03 -9.067795265585266407e+02 -6.551616283200520456e+02 -5.167465596029088601e+02
-1.467896288665550060e+02 -5.034991592678291568e+02 -3.569284847361161042e+02 3.270936401609496897e+02 1.047785446676620609e+02 -4.292397329913242174e+02 -8.374992686013201819e+02 -1.410299041351172491e+03 -1.127986784067581766e+03 -8.686010890400543758e+02 -6.325732609887933222e+02 -5.044566486594540606e+02
-1.254937225794649720e+02 -4.922190630065048254e+02 -3.649852177123730712e+02 3.101472479912717404e+02 1.216843407636294501e+02 -4.283538664978592010e+02 -8.137181440107758590e+02 -1.308198266095799681e+03 -1.053932564353483031e+03 -8.173279693993125647e+02 -6.012620492496461111e+02 -4.852356479759920376e+02
-1.120635394814769654e+02 -4.811649112313253340e+02 -3.683739911917535892e+02 2.977824451834925981e+02 1.276852487006111545e+02 -4.243486554874345984e+02 -7.771879185743985090e+02 -1.215383514889313119e+03 -9.867378404036811617e+02 -7.701503056615395053e+02 -5.720067496059648420e+02 -4.670891488131452434e+02
-1.066863507264943394e+02 -4.745298521345553695e+02 -3.688919496957710180e+02 2.923947217551610720e+02 1.320005421400520333e+02 -4.224473847965675191e+02 -7.318167111410713233e+02 -1.131469650756508599e+03 -9.302143179446577506e+02 -7.302485386596856642e+02 -5.466678501714752656e+02 -4.524494695385869250e+02
-1.029649685540326089e+02 -4.669032705607729099e+02 -3.642077127034406203e+02 2.855266547432562447e+02 1.300214658708325715e+02 -4.145202387298194822e+02 -6.845345064217208346e+02 -1.063767226730309858e+03 -8.871906052408186270e+02 -6.988404934123157091e+02 -5.296398255166968738e+02 -4.410821439287247472e+02
-9.428456022370895084e+01 -4.565900087207738807e+02 -3.621910368426929949e+02 2.760125783650697144e+02 1.344896815789592210e+02 -4.079320894085266218e+02 -6.468117127729730100e+02 -1.010335899703523978e+03 -8.612856291386109433e+02 -6.769248498423344245e+02 -5.221356177366125166e+02 -4.360264944949627193e+02
-8.685256251393519733e+01 -4.558209607265627596e+02 -3.685057616715470203e+02 2.716315194159174098e+02 1.428989916214086975e+02 -4.122408716658063099e+02 -6.288182281928235398e+02 -9.735809958039787944e+02 -8.452430790890848584e+02 -6.662681359514756423e+02 -5.202413993109111061e+02 -4.384155682616454897e+02
-7.877265586734513647e+01 -4.666308240613092266e+02 -3.862725137263032593e+02 2.744319241386401700e+02 1.541102007631757829e+02 -4.252361292212622743e+02 -6.281239495626987264e+02 -9.497805892843788342e+02 -8.399856757694489033e+02 -6.638860621702378921e+02 -5.247207318794543198e+02 -4.451554947213178366e+02
-6.753505649289880353e+01 -4.791038053130262142e+02 -4.126317847357698270e+02 2.744557363922963873e+02 1.736961784900371981e+02 -4.449985743267288854e+02 -6.436186671301766182e+02 -9.330433234364729742e+02 -8.348259352593743188e+02 -6.641812967421330995e+02 -5.273347366545216346e+02 -4.504692337366834067e+02
-5.326126935518805539e+01 -4.945547704463392620e+02 -4.393892799035251642e+02 2.739404689103519672e+02 1.928540280485371738e+02 -4.662859810742467062e+02 -6.630124489749065333e+02 -9.210638399682660520e+02 -8.281233735761999242e+02 -6.628740267544804965e+02 -5.244588372195494230e+02 -4.506109106232188992e+02
-3.890020205050950608e+01 -5.004356134759827910e+02 -4.586298871470553422e+02 2.713364434935327836e+02 2.098807746438076833e+02 -4.788971746204496753e+02 -6.788066410142555469e+02 -9.127958430579425340e+02 -8.188615444283660736e+02 -6.569409245751450044e+02 -5.181096128577779609e+02 -4.478907476896934554e+02
-3.001214593557041610e+01 -4.932195608093050510e+02 -4.630467020927843578e+02 2.615026630103466800e+02 2.179399563946023761e+02 -4.792827515341685398e+02 -6.813192243229976839e+02 -9.033236221653958182e+02 -8.088710024223087203e+02 -6.452926786040501383e+02 -5.092324526767844191e+02 -4.437943304619009837e+02
-2.460991354701329215e+01 -4.846175499089932828e+02 -4.599678055704804365e+02 2.547002987609161266e+02 2.188779370948239773e+02 -4.721162804296038189e+02 -6.728230045452231707e+02 -8.923399505754374559e+02 -7.972012315481471205e+02 -6.327459701802190466e+02 -4.968245611038229868e+02 -4.360982988102381341e+02
-3.055133923678123153e+01 -4.764187389466967488e+02 -4.459172064070381793e+02 2.538909678750154626e+02 2.082480873682472691e+02 -4.605525197978669780e+02 -6.515806661447849137e+02 -8.777848054652453129e+02 -7.883707335270233898e+02 -6.204260748802934131e+02 -4.899195672926624638e+02 -4.306127278605582660e+02
-3.587690824982160365e+01 -4.720188486815307556e+02 -4.361064784444179736e+02 2.533620447581936617e+02 2.006465857296808792e+02 -4.539560941774203684e+02 -6.382690895912519409e+02 -8.686435022445161849e+02 -7.828548357167038603e+02 -6.128778377066458916e+02 -4.855536905766131781e+02 -4.286046292238044089e+02
-3.768023332851263518e+01 -4.698080369739540174e+02 -4.321333457949150443e+02 2.533954590495808077e+02 1.973468463405828288e+02 -4.507344418638962793e+02 -6.328268404823076025e+02 -8.598565393948327937e+02 -7.776089892316016403e+02 -6.069695732107189770e+02 -4.819371556827497329e+02 -4.270204907858042134e+02
-4.110477874541400922e+01 -4.707732251556874985e+02 -4.297398940909109228e+02 2.549769185605003656e+02 1.945861802747757565e+02 -4.495020490927137189e+02 -6.298912357319064768e+02 -8.530913873801304135e+02 -7.756398559811904079e+02 -6.044501935507820463e+02 -4.822238585491465983e+02 -4.275727232885741955e+02
-4.014607600658878539e+01 -4.726840888562035161e+02 -4.317995653429446179e+02 2.554647530790996086e+02 1.964625677728682547e+02 -4.526519919075724374e+02 -6.341443822431614308e+02 -8.469793831688597265e+02 -7.740838095442678650e+02 -6.037192039104367041e+02 -4.817380106044749368e+02 -4.295105631200168546e+02
-3.941357900034074646e+01 -4.777267355417359909e+02 -4.377991001835364955e+02 2.574678569500189838e+02 1.995902724712169913e+02 -4.575914359710129133e+02 -6.381494298728231342e+02 -8.427496692167303536e+02 -7.728963170907039739e+02 -6.043254376159226240e+02 -4.828058515278067944e+02 -4.301514988140117453e+02
-3.867385358088086633e+01 -4.823839130922036134e+02 -4.441123664411629193e+02 2.599722197604216944e+02 2.030452873099987414e+02 -4.625855877919294130e+02 -6.436167465765653333e+02 -8.376761402433403418e+02 -7.702260149217800063e+02 -6.030547342513033300e+02 -4.836605164345624530e+02 -4.305027630800221914e+02
-4.028192734234423256e+01 -4.878544543209156359e+02 -4.465351566603521292e+02 2.632363246045362075e+02 2.027840634729849114e+02 -4.671091218395921487e+02 -6.433936698898494342e+02 -8.345530733964544652e+02 -7.694923744005367325e+02 -6.031198235740820337e+02 -4.842005107232141086e+02 -4.313716268236329938e+02
-4.424755220348754392e+01 -4.912206388873307219e+02 -4.467885558414131424e+02 2.666652203435887714e+02 2.023169831156690748e+02 -4.690527004201658769e+02 -6.412341968115406416e+02 -8.297942284455751860e+02 -7.675290150033855525e+02 -6.028219589273143129e+02 -4.838344437317069264e+02 -4.300644852047906852e+02
-4.979678177757521951e+01 -4.930828733505698551e+02 -4.432094716637394640e+02 2.704832075552066613e+02 1.965376279422174264e+02 -4.678242439758477644e+02 -6.363976192862102153e+02 -8.259324611593300460e+02 -7.655668742379722289e+02 -6.032503867361973562e+02 -4.841385031908953920e+02 -4.300785692548541306e+02
-5.399933907731065119e+01 -4.918208452658784040e+02 -4.385965741333371852e+02 2.718813169273904009e+02 1.921082555246790662e+02 -4.643202640246313422e+02 -6.314837356682508016e+02 -8.199768920110674344e+02 -7.642448011604258227e+02 -6.021622690542986902e+02 -4.839137576632595028e+02 -4.298923472837718123e+02
-5.496790476994044639e+01 -4.877510631311122893e+02 -4.332482241710242761e+02 2.703621804429071744e+02 1.885872831398540654e+02 -4.594178359610061761e+02 -6.269370422347536760e+02 -8.159133063755047033e+02 -7.621488634540030489e+02 -6.014925351874892385e+02 -4.835403280421624004e+02 -4.301448587902255554e+02
-5.169820586768084780e+01 -4.817127349419542384e+02 -4.296773747102242851e+02 2.659906765781498166e+02 1.877038143449256609e+02 -4.550789108821808782e+02 -6.238399350549648261e+02 -8.099807839822518645e+02 -7.592007025837721130e+02 -5.995435168577114382e+02 -4.816011982884683675e+02 -4.293393210193423783e+02
-4.800870622892657025e+01 -4.751766376995441874e+02 -4.281188394938521924e+02 2.612665804920105757e+02 1.898699615696933733e+02 -4.511545428132425286e+02 -6.219748074304769716e+02 -8.059927551924228055e+02 -7.579647433420929019e+02 -5.971526017232818049e+02 -4.784788994432820459e+02 -4.277400708847815167e+02
-4.134553300528760644e+01 -4.689667614006611984e+02 -4.279172031130850655e+02 2.541645685618836694e+02 1.933726440654560577e+02 -4.482482993401951035e+02 -6.220715356064574735e+02 -7.993418521628608460e+02 -7.546710246750558326e+02 -5.930564488858703953e+02 -4.738639945383147278e+02 -4.249314323369234216e+02
-3.724951212986219673e+01 -4.660246459977407198e+02 -4.286834302593659345e+02 2.510122483856807207e+02 1.953150248793453727e+02 -4.474762952203777786e+02 -6.224905678649384981e+02 -7.947567527553749187e+02 -7.521108980797104095e+02 -5.893277941747168143e+02 -4.710574191416637291e+02 -4.217616700048828307e+02
-3.361386488412163942e+01 -4.627136025320948534e+02 -4.291233677491782146e+02 2.476813081611005884e+02 1.975572414358489084e+02 -4.455497610605507361e+02 -6.234357374039160504e+02 -7.892055135206549039e+02 -7.486741798335033309e+02 -5.850202847193531852e+02 -4.671720514383583236e+02 -4.196829441290870477e+02
-3.116541658441900253e+01 -4.600850730713822259e+02 -4.289858666537512022e+02 2.451417546242267633e+02 1.987262371798253469e+02 -4.436773312760379326e+02 -6.215104633422827192e+02 -7.842293556589436321e+02 -7.456389400219335357e+02 -5.813633394601919235e+02 -4.631652598976556874e+02 -4.162982799694730716e+02
-2.758350518151333830e+01 -4.566611813783006255e+02 -4.283613117026815189e+02 2.415789998788050355e+02 1.996335081308018857e+02 -4.414621208602576985e+02 -6.192802165458273294e+02 -7.773550699678004321e+02 -7.401119185997052909e+02 -5.770134254959328928e+02 -4.597938042150458955e+02 -4.127767318135398682e+02
-2.574847097174877320e+01 -4.546469094723258308e+02 -4.283551676167771802e+02 2.397851019955345464e+02 2.013775189654665212e+02 -4.402588222511085974e+02 -6.143831190848395636e+02 -7.722470890348148487e+02 -7.370241509737769547e+02 -5.733658735374074240e+02 -4.568738005964154354e+02 -4.093233667465878511e+02
-2.344098670933555795e+01 -4.530314001569142874e+02 -4.300049943422093861e+02 2.373381684686042945e+02 2.027872940772487027e+02 -4.398027754762577501e+02 -6.102216146190894506e+02 -7.653020738800878462e+02 -7.336168390851636332e+02 -5.694877471419557651e+02 -4.550270963875658481e+02 -4.062006927481572802e+02
-2.174380681685217453e+01 -4.530844311587868560e+02 -4.303232824771121159e+02 2.364180329470159734e+02 2.042274139172922958e+02 -4.407432349557373072e+02 -6.061187748355882832e+02 -7.608765840262400388e+02 -7.323176199997187723e+02 -5.683594910711409511e+02 -4.549376551232138581e+02 -4.053910075317612041e+02
-1.955586945083388883e+01 -4.529446785400196518e+02 -4.331472200898116967e+02 2.351901730283221355e+02 2.064090056572974845e+02 -4.415778371124279715e+02 -6.027847554174312563e+02 -7.550716648576038779e+02 -7.311761598684812498e+02 -5.676866450023134121e+02 -4.562184144128774506e+02 -4.052538084808259100e+02
-1.658941289762871563e+01 -4.524956564186517767e+02 -4.359785912509775017e+02 2.339070733870389915e+02 2.095271767377327023e+02 -4.433694971334773527e+02 -6.010393154792730002e+02 -7.515232402382191594e+02 -7.309973435313797836e+02 -5.688562139936061612e+02 -4.578993774626545701e+02 -4.076530967513343739e+02
-1.184119990033208403e+01 -4.516156351510023796e+02 -4.392099466292424381e+02 2.312879859421979631e+02 2.134215517648823948e+02 -4.453689391875394676e+02 -6.010502314983710903e+02 -7.468779072110210109e+02 -7.309621253881022085e+02 -5.694880976503967531e+02 -4.591362425385348160e+02 -4.086021508262492716e+02
-9.592143641767155060e+00 -4.529367145660476126e+02 -4.419576689771287192e+02 2.304407927354010894e+02 2.158198230623461882e+02 -4.474530954739909134e+02 -6.013977287811865153e+02 -7.435951193970292934e+02 -7.310744726762294476e+02 -5.709600821407302647e+02 -4.610375088303649136e+02 -4.097796026836752503e+02
-8.180179517728126015e+00 -4.528915423925998311e+02 -4.447665914090881074e+02 2.296541769242116118e+02 2.188559797668871170e+02 -4.488176557060253913e+02 -6.035943345191112712e+02 -7.388381090948241763e+02 -7.304506520184461351e+02 -5.708970109229378522e+02 -4.614360505778629431e+02 -4.106704804248316805e+02
-7.284845071954336504e+00 -4.531654274112773919e+02 -4.449574777723867669e+02 2.304004623592530550e+02 2.189247208670099099e+02 -4.490815822277044731e+02 -6.040842995900592314e+02 -7.356901035001350238e+02 -7.286167989173243313e+02 -5.706939527835219224e+02 -4.624271665864606575e+02 -4.111332353334517506e+02
-7.529840617484783394e+00 -4.523682029496395671e+02 -4.446771849073527960e+02 2.290236315174030324e+02 2.185825861744111194e+02 -4.484918207158331143e+02 -6.039695331951562594e+02 -7.302366334555775893e+02 -7.267662146564431396e+02 -5.678949655229133668e+02 -4.611102450349428636e+02 -4.110177503588040508e+02
-7.650620380739003856e+00 -4.502750715091812594e+02 -4.418255276367940496e+02 2.287502653986716439e+02 2.170540098974178704e+02 -4.460975071330677793e+02 -6.040271291532493478e+02 -7.259508137655307110e+02 -7.233265186625371825e+02 -5.645577301124664018e+02 -4.600467170707373725e+02 -4.098365709329810898e+02
-6.668001750569175101e+00 -4.460837563558159786e+02 -4.396678420262941245e+02 2.257296048298763083e+02 2.165536054416084824e+02 -4.427910515559668738e+02 -6.039239219180510645e+02 -7.196313996670063489e+02 -7.198470401558033700e+02 -5.593688622636583432e+02 -4.566584357145179638e+02 -4.080621863915116592e+02
-6.253502634977223806e+00 -4.429065351382670315e+02 -4.374386954163210817e+02 2.238027168233223847e+02 2.154964359230409912e+02 -4.405541614253218086e+02 -6.046403999155897964e+02 -7.141570994400414065e+02 -7.163449761806330116e+02 -5.553061764819000246e+02 -4.547573578477412752e+02 -4.069715333699265329e+02
-2.591798615312350229e+00 -4.405202572115414910e+02 -4.368801533370024117e+02 2.208586370889575505e+02 2.175578120169624299e+02 -4.392123866407459900e+02 -6.052085181087596766e+02 -7.076226949211754800e+02 -7.133010068577412994e+02 -5.516038135928738484e+02 -4.524907798690557001e+02 -4.043537123089601550e+02
1.916100207445817216e-01 -4.382112255496066950e+02 -4.374972935260765325e+02 2.181142058762354452e+02 2.190541683044783952e+02 -4.383948935569593459e+02 -6.043517373204708747e+02 -7.021146721822435666e+02 -7.118217833910022136e+02 -5.503277281847346103e+02 -4.507200369232853063e+02 -4.028600091076178273e+02
5.348847711382080483e+00 -4.346807819266828119e+02 -4.394903676293052968e+02 2.147019277940686379e+02 2.223163384757077665e+02 -4.372504698743518929e+02 -6.027721139101229255e+02 -6.962575545456820691e+02 -7.100419071319306568e+02 -5.492613371760060090e+02 -4.491184605309577478e+02 -4.004894624789132536e+02
7.035322694895062234e+00 -4.327366742592225251e+02 -4.401559508911321359e+02 2.127682437124208832e+02 2.236843030897010749e+02 -4.363758136826013470e+02 -6.005096759857640336e+02 -6.913562346365613394e+02 -7.090686928716964985e+02 -5.483677295973517403e+02 -4.479600606029616756e+02 -3.981957784326929186e+02
9.854406166618522533e+00 -4.305031225161956741e+02 -4.399156451011587023e+02 2.104114605311579282e+02 2.247828507092013695e+02 -4.352793431986117412e+02 -5.991828278850867946e+02 -6.849608828414692425e+02 -7.057393536445953259e+02 -5.473571965991443449e+02 -4.453915738780237348e+02 -3.952930097340992575e+02
9.741097207542706471e+00 -4.292240583120049564e+02 -4.400593734322869750e+02 2.094286867633483951e+02 2.250572674131160795e+02 -4.343142572789871565e+02 -5.994760934152180880e+02 -6.817950985825742691e+02 -7.031943404594383082e+02 -5.452445487899826730e+02 -4.433803241295452722e+02 -3.938971405106668726e+02
1.089955323801799381e+01 -4.289947383917241268e+02 -4.399450374924956009e+02 2.081217159517483424e+02 2.249060445390236112e+02 -4.338449833788894239e+02 -6.008290167730724534e+02 -6.761808030978305624e+02 -6.997097784222647761e+02 -5.417573795420801162e+02 -4.395214417877537016e+02 -3.919300831364171813e+02
1.084631416443520635e+01 -4.283538449442797855e+02 -4.400733665707131195e+02 2.080665700036620649e+02 2.256795624276081469e+02 -4.341363555838955790e+02 -6.015392802793387546e+02 -6.726537830403864291e+02 -6.976932681177703444e+02 -5.390940157039962060e+02 -4.379564263918801430e+02 -3.916548954526796820e+02
1.170012011955539322e+01 -4.284173342619434379e+02 -4.398390838710498087e+02 2.078807938406959011e+02 2.260186969218959234e+02 -4.338317048857899749e+02 -6.028305361593425005e+02 -6.673691155173094103e+02 -6.960741702020852699e+02 -5.368027791308298902e+02 -4.352095992959821160e+02 -3.904534067262825374e+02
1.264477218852303864e+01 -4.293297510622989535e+02 -4.411816133117268919e+02 2.081758709537566006e+02 2.271123681045156673e+02 -4.346699731113914709e+02 -6.030671116472789208e+02 -6.629728696333733069e+02 -6.959926601595067268e+02 -5.377774531714468367e+02 -4.351519021490207138e+02 -3.920911430320689988e+02
1.357531449769667375e+01 -4.287725092677822545e+02 -4.434625882367613485e+02 2.073381652873733856e+02 2.289176167511425035e+02 -4.356601963750912887e+02 -6.024277528372216466e+02 -6.567925064973933331e+02 -6.965865164432063921e+02 -5.390194578140748263e+02 -4.347187700959614745e+02 -3.916685464403004175e+02
1.629909251488242816e+01 -4.287157260568839661e+02 -4.452269021257746431e+02 2.058798507299933931e+02 2.304729904352337257e+02 -4.366872386411173466e+02 -6.013036831234047668e+02 -6.507193250545429919e+02 -6.967481422535912543e+02 -5.417363519294773369e+02 -4.358692525979947732e+02 -3.929142895660234558e+02
2.097178700702237819e+01 -4.265560141342680254e+02 -4.475210878822030054e+02 2.029800777727899685e+02 2.345531868042902772e+02 -4.373048997286740018e+02 -5.998239431742312036e+02 -6.423914133093716146e+02 -6.945041466424073633e+02 -5.419718426693943911e+02 -4.359112740160452404e+02 -3.929160100058581975e+02
2.444188366884436903e+01 -4.238113093553332646e+02 -4.482132476844356006e+02 1.995566582106548879e+02 2.358997355250349699e+02 -4.351436828046599885e+02 -5.975740115809304598e+02 -6.349016919122130957e+02 -6.923636132876046076e+02 -5.416143320339393767e+02 -4.361706547445603519e+02 -3.926356298983887996e+02
2.882318051799801495e+01 -4.183851647773803393e+02 -4.472793206525059873e+02 1.946335816685541147e+02 2.394172284768480949e+02 -4.324697533637162792e+02 -5.952446799860449573e+02 -6.268012165257389370e+02 -6.881198695777375178e+02 -5.395917913336326137e+02 -4.353512073861155613e+02 -3.910137309422764247e+02
3.308921421062310486e+01 -4.139659840110489313e+02 -4.469412057982130477e+02 1.896432406284088188e+02 2.404749285949435205e+02 -4.303173613085350553e+02 -5.917424016817599295e+02 -6.218384256155563889e+02 -6.850326869390886486e+02 -5.372925458779620840e+02 -4.338435025254457287e+02 -3.907134619795652384e+02
3.800707754767808666e+01 -4.083204945771305461e+02 -4.465400998684647789e+02 1.852671066897641197e+02 2.424915771190936766e+02 -4.266814988824060606e+02 -5.897450869458234592e+02 -6.164511852109783376e+02 -6.820102080297970133e+02 -5.332849838157104614e+02 -4.315386444818415725e+02 -3.884227243430900103e+02
4.144525128261408753e+01 -4.045255731756352588e+02 -4.451202320659685370e+02 1.807722175996894123e+02 2.435890066814417594e+02 -4.248315857953043633e+02 -5.875812069650241938e+02 -6.119082339560350192e+02 -6.784456889744673163e+02 -5.288740236221887017e+02 -4.293271126518320671e+02 -3.870178367455845887e+02
4.487808803452635686e+01 -4.004947701568088405e+02 -4.450422249579909248e+02 1.770338463444361139e+02 2.448482084740177527e+02 -4.224120130722667454e+02 -5.857360698956815668e+02 -6.064649616554412432e+02 -6.747951635902363705e+02 -5.240091440006227685e+02 -4.256283410243125900e+02 -3.837614405020364075e+02
4.540708917464264260e+01 -3.999853468628966766e+02 -4.449246901444416835e+02 1.771929357168188233e+02 2.449418084130861928e+02 -4.218937808815348376e+02 -5.840633817482405448e+02 -6.018560503110250011e+02 -6.721322443203400780e+02 -5.206224509633682374e+02 -4.243592737978049740e+02 -3.817883367254843279e+02
4.602932626702274632e+01 -4.003321417589440898e+02 -4.451038602264176802e+02 1.771781613524867964e+02 2.451416544397284838e+02 -4.225381467455550819e+02 -5.840789997010560910e+02 -5.970451202652852771e+02 -6.694049191230373026e+02 -5.168929506387560195e+02 -4.236788688640398846e+02 -3.799123488245227804e+02
4.268875590830268862e+01 -4.029921190696435360e+02 -4.448295999524211766e+02 1.801369520579087578e+02 2.443665126048925913e+02 -4.237786847558024874e+02 -5.839079186293399744e+02 -5.935839594236413177e+02 -6.683196409054276046e+02 -5.184015428177121976e+02 -4.252465934421358611e+02 -3.807603453069044690e+02
4.082971407962813259e+01 -4.055070489679858952e+02 -4.457182076090088572e+02 1.823415565040338890e+02 2.432734181549035384e+02 -4.245295421666431821e+02 -5.840670274691796067e+02 -5.896886814670621106e+02 -6.679417570829986062e+02 -5.200799020221809315e+02 -4.278579044428597058e+02 -3.814747500451974247e+02
3.936002472013725395e+01 -4.061909226286774697e+02 -4.460483022679970873e+02 1.834343623729179740e+02 2.433394352816592061e+02 -4.258219636522708811e+02 -5.843719803603337368e+02 -5.868585400327604020e+02 -6.674037201579142220e+02 -5.231057809077667571e+02 -4.306285987243464888e+02 -3.829203828672410168e+02
4.199104168012230787e+01 -4.055114343431203565e+02 -4.464182659236204245e+02 1.816871094083424225e+02 2.453794987132734491e+02 -4.260451901534776198e+02 -5.864091961209484225e+02 -5.818473290666821640e+02 -6.673951478309052163e+02 -5.253584614682115443e+02 -4.315708974433574667e+02 -3.828783961952300956e+02
4.578451967378242671e+01 -4.027079531228362157e+02 -4.483925875776444627e+02 1.788682328241497430e+02 2.476672724530151868e+02 -4.254958590322801228e+02 -5.881779525257256864e+02 -5.798555222701855882e+02 -6.682415359616644537e+02 -5.267738285315291478e+02 -4.323034094993668646e+02 -3.831790378845271334e+02
5.224348720604417196e+01 -3.982025974792401826e+02 -4.497001819621701202e+02 1.729281655864020877e+02 2.517386221117720595e+02 -4.242361363732498489e+02 -5.904879287108076369e+02 -5.775038511772332868e+02 -6.688054154231570010e+02 -5.280419666445020539e+02 -4.316201178344897471e+02 -3.827532307715933371e+02
5.714960625926008220e+01 -3.940271707890087782e+02 -4.507199345487143773e+02 1.677362762923460480e+02 2.550686172128699809e+02 -4.230370926177248521e+02 -5.916626903980416046e+02 -5.758251585101735373e+02 -6.717120090695708541e+02 -5.305001238176580500e+02 -4.333574811370859265e+02 -3.837460036196052329e+02
6.152751796330576184e+01 -3.889075071462877418e+02 -4.506506437935686904e+02 1.631278211610647020e+02 2.569319890440669951e+02 -4.198405647657492636e+02 -5.922451828383871089e+02 -5.741180531096991899e+02 -6.729299024064132482e+02 -5.325840787755838619e+02 -4.351490311408037996e+02 -3.845167136091419593e+02
6.250030588972236956e+01 -3.867602209142289098e+02 -4.486286403393247042e+02 1.604861513853622625e+02 2.570196707334809503e+02 -4.177904204365077021e+02 -5.912711148009028648e+02 -5.730062713689898146e+02 -6.756849473097116743e+02 -5.363370452920357820e+02 -4.379423992776689829e+02 -3.858065559171536165e+02
6.303822244659546215e+01 -3.850405415015381436e+02 -4.467911564132116951e+02 1.602742462286798855e+02 2.560716640001274982e+02 -4.154805328098121322e+02 -5.905152801073153341e+02 -5.709459087025967392e+02 -6.764687129938851058e+02 -5.380807089456562835e+02 -4.409622974162086280e+02 -3.864563556160430835e+02
5.924495324208203328e+01 -3.854458678592429237e+02 -4.445764710062775293e+02 1.623544453124881670e+02 2.529291725835325337e+02 -4.148812155148220313e+02 -5.886569812802712249e+02 -5.706417559862322832e+02 -6.777843511491323625e+02 -5.405690387853620678e+02 -4.434609450410676459e+02 -3.882637306525124359e+02
5.572840375702843829e+01 -3.882586329108804648e+02 -4.432866855863023829e+02 1.651250919795996595e+02 2.501537103540159990e+02 -4.154405956100498543e+02 -5.872580651783724761e+02 -5.696199947459216446e+02 -6.790352123432477356e+02 -5.415902569183181186e+02 -4.451492244575022141e+02 -3.908171942357608941e+02
5.052705042887373565e+01 -3.927557091261344340e+02 -4.427869302469223385e+02 1.704917467746568036e+02 2.474281694388807296e+02 -4.177794878856433911e+02 -5.864300672851801437e+02 -5.698288693327999681e+02 -6.810364985294486360e+02 -5.422109019478232312e+02 -4.474504926518720822e+02 -3.935592395615392434e+02
4.694296804403656154e+01 -3.969889986308303378e+02 -4.441202120060708580e+02 1.745286254896261369e+02 2.463479952274771563e+02 -4.210897540384902982e+02 -5.852317644962732857e+02 -5.683530415712792774e+02 -6.812970806041211063e+02 -5.423089663526502591e+02 -4.487175148582672932e+02 -3.950607297352202067e+02
4.500492238269684719e+01 -4.014919169913638939e+02 -4.464452175384325869e+02 1.778074856445448120e+02 2.462656989928701137e+02 -4.232589701266348925e+02 -5.849861706953943212e+02 -5.700871406576829941e+02 -6.829772896733028347e+02 -5.435100253442423082e+02 -4.490970370243540515e+02 -3.974877034418311155e+02
4.551318373184417254e+01 -4.029971762814461158e+02 -4.480081334645722109e+02 1.778468984521337291e+02 2.483765195654519005e+02 -4.258511390864831583e+02 -5.848770885881265258e+02 -5.701322084673502104e+02 -6.832866291218286960e+02 -5.424174305699447132e+02 -4.489947782381816523e+02 -3.991313700915916911e+02
4.770406146403422554e+01 -4.051601894204300152e+02 -4.516027931123428516e+02 1.782607334325116710e+02 2.506824859838304747e+02 -4.284838424069512826e+02 -5.860994819252205161e+02 -5.726379767229120716e+02 -6.854098139965320797e+02 -5.445473875052927042e+02 -4.484731609999992088e+02 -4.009631432084639755e+02
5.063438663373986515e+01 -4.046297194617203559e+02 -4.544840808823246903e+02 1.772106458424230198e+02 2.536978674272966146e+02 -4.301395798915479531e+02 -5.883321371138320046e+02 -5.738407889224251903e+02 -6.876001772082042862e+02 -5.458692450294512355e+02 -4.477389202853517531e+02 -4.013411458377130430e+02
5.159778208063023186e+01 -4.058896841133528710e+02 -4.562444509921036229e+02 1.770100396876601110e+02 2.544588270089113564e+02 -4.320219224698163885e+02 -5.907318375403666550e+02 -5.771942840134280459e+02 -6.911756319236534409e+02 -5.492582193735668170e+02 -4.486090052644182720e+02 -4.029428278665528751e+02
5.174949769718180193e+01 -4.059320991883230363e+02 -4.573763525714715001e+02 1.769653522714338294e+02 2.554210086341331021e+02 -4.313665093281517215e+02 -5.940230276031165886e+02 -5.795955962220052697e+02 -6.940740994828453267e+02 -5.509766059356162486e+02 -4.501678699315196468e+02 -4.032840130205678975e+02
5.005237397693049672e+01 -4.056248027349123504e+02 -4.562525719208466057e+02 1.769893236587033414e+02 2.541267072038733943e+02 -4.303756974502033472e+02 -5.968732202726556579e+02 -5.832116969969159754e+02 -6.994534550179935195e+02 -5.541431803313191722e+02 -4.522232685479316388e+02 -4.054604782752084589e+02
4.963295884287597204e+01 -4.045015383484742415e+02 -4.554397507416016992e+02 1.775023008901788160e+02 2.536550323368840623e+02 -4.297650822948797895e+02 -5.994447844483282779e+02 -5.859933336574707710e+02 -7.038477061211607406e+02 -5.564547282669121842e+02 -4.553058978464022744e+02 -4.070344962552998709e+02
4.816852491006189041e+01 -4.063456443862056062e+02 -4.547192216912849290e+02 1.786281505330490518e+02 2.519953852865920112e+02 -4.306317588595618986e+02 -6.011593850470098914e+02 -5.915438336726977013e+02 -7.098890144733875331e+02 -5.617687076570159661e+02 -4.595733264213442339e+02 -4.095377845088623303e+02
4.708082186298482696e+01 -4.085875342830914292e+02 -4.556963784971546829e+02 1.806135001235744255e+02 2.522745394662180729e+02 -4.320593045042310791e+02 -6.032830626803429368e+02 -5.956613714127380490e+02 -7.165189204349023839e+02 -5.680175544408884889e+02 -4.644759753064340657e+02 -4.109189763548637302e+02
4.446535590367419388e+01 -4.121906951415903109e+02 -4.565657318447411512e+02 1.836555052958885881e+02 2.511719579473142687e+02 -4.344596931436844329e+02 -6.057718801820161616e+02 -6.025795822916637690e+02 -7.260743928306794714e+02 -5.772415512653840324e+02 -4.709379147431071146e+02 -4.141267421055063096e+02
4.289664501611135705e+01 -4.146047392351904932e+02 -4.576466960416148595e+02 1.848944332761640510e+02 2.510894933568096121e+02 -4.360352494160185870e+02 -6.084923983554025426e+02 -6.091985167349923813e+02 -7.333774144430385604e+02 -5.868794052311450287e+02 -4.772063162331954800e+02 -4.161442477830661346e+02
4.152313440148229517e+01 -4.178031976277488866e+02 -4.590780174949110801e+02 1.876992106257611681e+02 2.508158511679631886e+02 -4.385622389988054124e+02 -6.101205527931506367e+02 -6.162357648972149491e+02 -7.400672033099763212e+02 -5.946275249639085132e+02 -4.836893553804874841e+02 -4.184659162688728884e+02
4.236346793513276054e+01 -4.181637190734000455e+02 -4.613623209331731800e+02 1.878792772318526829e+02 2.516278324963932107e+02 -4.393912819856415126e+02 -6.119372167163419363e+02 -6.208407690705872710e+02 -7.451037733124384204e+02 -6.008466552500963189e+02 -4.868728233598218935e+02 -4.195739547109166665e+02
4.210190756776653842e+01 -4.210865055955929961e+02 -4.635892488654151862e+02 1.886060005423345558e+02 2.530108605541796010e+02 -4.418105670657456585e+02 -6.119682701865899617e+02 -6.265169428822370037e+02 -7.493087348750823367e+02 -6.054392785148155554e+02 -4.889963226885722065e+02 -4.207148861766154369e+02
4.415314070493194976e+01 -4.231059933832927982e+02 -4.671828405665513060e+02 1.896695161936959266e+02 2.555385528285408157e+02 -4.448733360185606784e+02 -6.115652255795411065e+02 -6.302290072634948501e+02 -7.514369765306461204e+02 -6.064885778257192896e+02 -4.893328674312923567e+02 -4.215344689500597610e+02
4.365656510230098064e+01 -4.255444078436609630e+02 -4.691167659807906034e+02 1.900677484747331789e+02 2.564779785592482995e+02 -4.475497886562841927e+02 -6.103046945182676382e+02 -6.352455222517997981e+02 -7.557847324225748480e+02 -6.078085895097256071e+02 -4.908672879261909543e+02 -4.226877130034228571e+02
4.437824563246489618e+01 -4.260493592042284376e+02 -4.711192835217862580e+02 1.905025396903076000e+02 2.578964916022134730e+02 -4.480761781958129859e+02 -6.085751170390567495e+02 -6.399752667223094704e+02 -7.587542719955158645e+02 -6.084096409555878608e+02 -4.914500379401853820e+02 -4.236586389879095691e+02
4.359445613404454889e+01 -4.256379797982159516e+02 -4.697363594138645908e+02 1.908093407574188234e+02 2.574418831641568204e+02 -4.476156781043908950e+02 -6.043370776403204445e+02 -6.448449950448733716e+02 -7.616138620673758624e+02 -6.098842633848904597e+02 -4.923202984682603187e+02 -4.236702247878872072e+02
4.446436917994707727e+01 -4.236491283860108865e+02 -4.683788004760921808e+02 1.889941998482084955e+02 2.563780567094800631e+02 -4.456389784034166723e+02 -6.006386814950818689e+02 -6.477497149810550354e+02 -7.624704035750621642e+02 -6.099197723926087065e+02 -4.917632433678510324e+02 -4.222096525061296006e+02
4.307451200129747804e+01 -4.222915029399937339e+02 -4.668373005859779710e+02 1.891688769522588984e+02 2.553864957801715150e+02 -4.443959744370178555e+02 -5.972041970687268986e+02 -6.505256458325085305e+02 -7.633832412695809353e+02 -6.100637996608135154e+02 -4.917907577477930090e+02 -4.210713457948668292e+02
4.274904642615870642e+01 -4.219253135253393907e+02 -4.651588214440582760e+02 1.888339025632623418e+02 2.543045782178345462e+02 -4.432413197526312842e+02 -5.971290710538639814e+02 -6.523296552295222455e+02 -7.625632553382771448e+02 -6.104014685919476051e+02 -4.899570615850631157e+02 -4.185218065974362389e+02
4.094134329752932899e+01 -4.215864697863470383e+02 -4.646584495954331260e+02 1.891233536364311476e+02 2.540129327860011870e+02 -4.430726485235858263e+02 -5.971629223314575938e+02 -6.572036697017719007e+02 -7.639471080264938792e+02 -6.113839211791578236e+02 -4.902812600295374637e+02 -4.169324904145324808e+02
4.130227283320486009e+01 -4.203315679318398566e+02 -4.622123411610987205e+02 1.890188639608704477e+02 2.530094375965082349e+02 -4.420573153468394594e+02 -5.999707067781330352e+02 -6.619279605047007635e+02 -7.637445340317952969e+02 -6.106131739807219674e+02 -4.892438384247070644e+02 -4.150929115998868042e+02
4.059080259766773224e+01 -4.181954680429444693e+02 -4.592844017445114559e+02 1.876636345286407561e+02 2.511171297295820750e+02 -4.387934277144731254e+02 -6.022461246217081907e+02 -6.671652532603337704e+02 -7.647880847236277759e+02 -6.115089965812705941e+02 -4.886208809355532594e+02 -4.142347694473344291e+02
4.191675757959526294e+01 -4.121596375722178323e+02 -4.547489516277331063e+02 1.837450675899252417e+02 2.497927517076821289e+02 -4.334439401577507738e+02 -6.038729641111242472e+02 -6.724601032274391628e+02 -7.649726905851591710e+02 -6.092142613862482676e+02 -4.863739334655040238e+02 -4.109569231874060051e+02
4.182137540920927421e+01 -4.061160994245155962e+02 -4.475733680066126681e+02 1.815987502030185681e+02 2.451110776595721177e+02 -4.273093806280962212e+02 -6.039264439374891253e+02 -6.784012118432942771e+02 -7.647013055645330724e+02 -6.058088421682815579e+02 -4.821201931384157433e+02 -4.079913495619221067e+02
4.223670006424426759e+01 -3.982846033466943823e+02 -4.408813578147775729e+02 1.772835841246452162e+02 2.425190908846783202e+02 -4.209249784790290505e+02 -6.041068467326259679e+02 -6.827836494556808020e+02 -7.626413950427252075e+02 -6.009391875968224213e+02 -4.768880705984228143e+02 -4.027244267312689203e+02
4.173566987978675513e+01 -3.926536728176472479e+02 -4.335250016840267904e+02 1.742517282411704969e+02 2.382518428461453937e+02 -4.134948085440151999e+02 -6.038826339463895465e+02 -6.882297961370204575e+02 -7.609724557254216961e+02 -5.951711129567011085e+02 -4.715035375570528799e+02 -3.981679139644319321e+02
4.228296290195897456e+01 -3.858607755475673571e+02 -4.277151755325033378e+02 1.714838239129530848e+02 2.358082097622938136e+02 -4.078039328022434802e+02 -6.041163787496354871e+02 -6.933352167790591238e+02 -7.585296473315496542e+02 -5.872584564245391903e+02 -4.656719681949545020e+02 -3.931245792447616054e+02
4.170030150256307167e+01 -3.821666797355254062e+02 -4.240207564304070615e+02 1.700774103607378436e+02 2.336245841617071051e+02 -4.034370468699555659e+02 -6.039110767469163648e+02 -6.998268582247950462e+02 -7.574776520175427095e+02 -5.820777157384706015e+02 -4.615028162398298832e+02 -3.904144120700184999e+02
4.232101625840115844e+01 -3.790686540262263975e+02 -4.212461261021675796e+02 1.674589223548464361e+02 2.324162620510513193e+02 -4.001416029779051087e+02 -6.037108612101696963e+02 -7.060033054444240861e+02 -7.562919945994678983e+02 -5.771337782657560638e+02 -4.585736529729698532e+02 -3.869274558422815176e+02
4.163135553259528621e+01 -3.763798066327950664e+02 -4.185798618699078588e+02 1.665536288570238241e+02 2.313197351764430039e+02 -3.971666264919034575e+02 -6.016755659516086325e+02 -7.125406696389378567e+02 -7.551645483957640863e+02 -5.745535020887675728e+02 -4.564472731560022112e+02 -3.844344077952071075e+02
4.277229260857227899e+01 -3.726038839053367155e+02 -4.166429403590483957e+02 1.649125163477982881e+02 2.304963932906521791e+02 -3.943106798441909291e+02 -5.999668779899454876e+02 -7.166631477614845380e+02 -7.516411616451629243e+02 -5.699222475332885551e+02 -4.531526794058950145e+02 -3.810068846492502530e+02
4.376819846146621984e+01 -3.678817593095184861e+02 -4.118945532201127548e+02 1.614564496746277769e+02 2.292831489336452364e+02 -3.902470275730341314e+02 -5.972201466529760410e+02 -7.215383970373483180e+02 -7.471656681517769130e+02 -5.648673715297571789e+02 -4.488936936699909666e+02 -3.775926697638988685e+02
4.704836130345500322e+01 -3.600514528322465253e+02 -4.075615224748615333e+02 1.555920621250770353e+02 2.285300118504919737e+02 -3.844155274304964109e+02 -5.941110635732890159e+02 -7.226830307734761618e+02 -7.418710216562851656e+02 -5.566218187484190594e+02 -4.420989091994760543e+02 -3.710018732142286808e+02
4.951422846042871129e+01 -3.528304881140558109e+02 -4.036001990684454199e+02 1.514509863726593721e+02 2.272282051856595047e+02 -3.783212743175194532e+02 -5.921308790736885612e+02 -7.261548428463573828e+02 -7.367196479305126786e+02 -5.477203077735098304e+02 -4.358293361307604528e+02 -3.658938052027147023e+02
5.310077271871152504e+01 -3.457056471448598245e+02 -3.995772774974349204e+02 1.450603596802323239e+02 2.269779276337450540e+02 -3.729555449232344131e+02 -5.915700729328148100e+02 -7.283682802336243185e+02 -7.300726707260217836e+02 -5.383607974157228000e+02 -4.265862518628997009e+02 -3.583862545752201072e+02
5.547935270494819093e+01 -3.392781229816767450e+02 -3.960552487956117602e+02 1.406091834556004017e+02 2.270390769020801827e+02 -3.679085659536328876e+02 -5.906369026661749331e+02 -7.326192809740369967e+02 -7.251771704690409024e+02 -5.307136899999211437e+02 -4.206599443521293438e+02 -3.531369107901849134e+02
5.882738057845116941e+01 -3.343306426918072702e+02 -3.933236637891596956e+02 1.368860055970849032e+02 2.265564117923493654e+02 -3.640456161786541429e+02 -5.917065605646122322e+02 -7.364808457354125721e+02 -7.197778776262902056e+02 -5.242176595558011059e+02 -4.140863735660971656e+02 -3.477913931045155209e+02
5.835076083056777918e+01 -3.311874972858789761e+02 -3.901503142096644865e+02 1.352867488740832016e+02 2.249887121910651047e+02 -3.608127675596700215e+02 -5.928332037217229527e+02 -7.428845544218438590e+02 -7.156941668509927013e+02 -5.190468716516988934e+02 -4.091923363881747377e+02 -3.433150203616957583e+02
5.723074179038883358e+01 -3.290188985659151513e+02 -3.868847332531180996e+02 1.352453839283053014e+02 2.217529343708074805e+02 -3.572634377173462781e+02 -5.959344630902088511e+02 -7.481705911650060443e+02 -7.115141331920559651e+02 -5.140032823448188992e+02 -4.038332824763193116e+02 -3.376615666366143955e+02
5.359210573220632767e+01 -3.291289156687157629e+02 -3.823469123593803829e+02 1.372928669450401458e+02 2.180506396220737884e+02 -3.567417768569661689e+02 -5.985867201628391285e+02 -7.553668299604868253e+02 -7.077487656237274223e+02 -5.086895026846472661e+02 -3.992366441154174481e+02 -3.338550157428169882e+02
4.965813189334969024e+01 -3.289043993253247891e+02 -3.793645412347829051e+02 1.391009970770099358e+02 2.148728096184183585e+02 -3.546320032370292665e+02 -6.020097408128364123e+02 -7.619059586028814692e+02 -7.035254493955375210e+02 -5.021785975170327561e+02 -3.938610659193918764e+02 -3.293346813885383995e+02
4.642987115835772016e+01 -3.286841000711190190e+02 -3.756524310029027447e+02 1.408521089594854345e+02 2.108760180239278270e+02 -3.531135230608293796e+02 -6.041569127667903558e+02 -7.690211812228873214e+02 -6.997034360674092568e+02 -4.971550201346211111e+02 -3.891783651885958193e+02 -3.260118717372411652e+02
4.481324372586970384e+01 -3.271777348285872336e+02 -3.716643923653959973e+02 1.413688106934836526e+02 2.085439340018749306e+02 -3.500309255914353344e+02 -6.058447150611960978e+02 -7.736542849086118849e+02 -6.959929205136444352e+02 -4.918705743088867166e+02 -3.843488357545975873e+02 -3.211326409815792999e+02
4.025442999253387910e+01 -3.266102018130144984e+02 -3.676612926697802664e+02 1.427695817591917660e+02 2.046129946745325299e+02 -3.479683219056393000e+02 -6.063092079884547729e+02 -7.793057704318309789e+02 -6.934378160272461855e+02 -4.876575274690178503e+02 -3.808914329314444558e+02 -3.190480131750267674e+02
3.718807260331693954e+01 -3.255498408838856221e+02 -3.632212149715068108e+02 1.437403573798655430e+02 2.002441596437911926e+02 -3.451309911572868714e+02 -6.082470173565428695e+02 -7.831450477032011577e+02 -6.900562572357104045e+02 -4.836467654967880208e+02 -3.764529744878939823e+02 -3.163826222238826062e+02
3.124474803762366903e+01 -3.271784510849293497e+02 -3.582780341268617121e+02 1.473477182188057384e+02 1.953638676276289061e+02 -3.432036560176308626e+02 -6.103993254543109970e+02 -7.875863013718247885e+02 -6.874186653512817884e+02 -4.792771408791778072e+02 -3.727868371943524721e+02 -3.162196547344246369e+02
2.622595157214104233e+01 -3.295085821492108948e+02 -3.557509967629637231e+02 1.513459925726926940e+02 1.918257591549005383e+02 -3.428567952580245333e+02 -6.145514431969997986e+02 -7.910714184256814860e+02 -6.840678887409023901e+02 -4.739048517903239031e+02 -3.689810549277174800e+02 -3.151548124446652537e+02
2.114958004715120410e+01 -3.329526562509105361e+02 -3.545642575054802137e+02 1.548628488154453464e+02 1.882956520975443766e+02 -3.439011849287860514e+02 -6.176379183147930689e+02 -7.956149662302248089e+02 -6.817251243785559609e+02 -4.692388247520020741e+02 -3.663817504806474972e+02 -3.156350848520670525e+02
1.906857100158115514e+01 -3.358804020583652346e+02 -3.561982744978686242e+02 1.581305259209343888e+02 1.876633027723396765e+02 -3.467654600747470681e+02 -6.212960292960286779e+02 -7.990000848805589158e+02 -6.807465643195218945e+02 -4.642306581390790825e+02 -3.639282521046845886e+02 -3.159622894867072205e+02
1.604855113104679276e+01 -3.411919012827081019e+02 -3.580463271589369469e+02 1.620185506119142360e+02 1.865321753742714179e+02 -3.496625843481098741e+02 -6.253366102071825026e+02 -8.040364923926401843e+02 -6.810990920908320732e+02 -4.622001157523897064e+02 -3.641579123733140477e+02 -3.165252057057782054e+02
1.403159437802468368e+01 -3.451409350113787013e+02 -3.603489815026409246e+02 1.649186159067073447e+02 1.875412621207758264e+02 -3.532418543833614422e+02 -6.289527847588569784e+02 -8.087725749316351767e+02 -6.817118279118915325e+02 -4.623157751407531464e+02 -3.642969308933691082e+02 -3.175803855975255487e+02
1.080115882852530973e+01 -3.499143234984983906e+02 -3.615407861173675315e+02 1.696537159220205240e+02 1.856172134356723120e+02 -3.570098638367761055e+02 -6.312005356529421078e+02 -8.136268292971676601e+02 -6.845611526157331355e+02 -4.641364963141264184e+02 -3.653805328187181090e+02 -3.182703316805394138e+02
6.635558709610450911e+00 -3.548800877312173725e+02 -3.627012290914719301e+02 1.729765620250840072e+02 1.845776749364620173e+02 -3.590838812598476011e+02 -6.327269031303146676e+02 -8.170240834229318807e+02 -6.853866121141177246e+02 -4.665931455334014686e+02 -3.650528687945859474e+02 -3.173369501256640319e+02
3.116081345468743269e+00 -3.591623372433745089e+02 -3.630638402442093593e+02 1.776868128584552835e+02 1.828329028067659010e+02 -3.613170790715067255e+02 -6.335008370245088827e+02 -8.215965968752511799e+02 -6.867802808989283676e+02 -4.694332201591593616e+02 -3.670968286362865456e+02 -3.165645719395674860e+02
3.850881892619247293e-01 -3.609658355895139152e+02 -3.626419695385920363e+02 1.801991637920159803e+02 1.808667232265385394e+02 -3.622425664706680664e+02 -6.342445246146977524e+02 -8.246801721027429721e+02 -6.873955943986020429e+02 -4.709421564469916461e+02 -3.666593636333578274e+02 -3.152433151518633281e+02
-2.480493377035889235e+00 -3.630626347909395690e+02 -3.608249669879387511e+02 1.817315918566576727e+02 1.792563368526206489e+02 -3.614219137387980254e+02 -6.337989785657586026e+02 -8.273645878846087953e+02 -6.884107391377597196e+02 -4.729939746622068242e+02 -3.674298328168898138e+02 -3.146782325208608313e+02
-3.452538607595490028e+00 -3.623026054913907501e+02 -3.589387661308477391e+02 1.825454621689126782e+02 1.781584320232592518e+02 -3.605034450436724001e+02 -6.341832930398512644e+02 -8.290660583688327279e+02 -6.872217223762323783e+02 -4.728102798166663092e+02 -3.661338091770406891e+02 -3.127590979780368343e+02
-4.736558254193518280e+00 -3.616903754067671457e+02 -3.567092741905270259e+02 1.827509167862278048e+02 1.759230375342912680e+02 -3.589170013756495337e+02 -6.338283342465099395e+02 -8.303748150032942021e+02 -6.867047697211905870e+02 -4.729359378058711627e+02 -3.658746047251717641e+02 -3.110284254787635518e+02
-5.078010593789006322e+00 -3.596983420012549573e+02 -3.554171465298533690e+02 1.816169423650677288e+02 1.763328014760398901e+02 -3.572290912302383390e+02 -6.341596269025667425e+02 -8.301215405811827850e+02 -6.847604928201566281e+02 -4.701140391104256651e+02 -3.631357366365651274e+02 -3.086008266684819432e+02
-4.507474580863394920e+00 -3.584837673589294695e+02 -3.543683300608906848e+02 1.819476923772503767e+02 1.752213373202106368e+02 -3.565655773167801499e+02 -6.338598949414698609e+02 -8.316261313589923247e+02 -6.830001848760920211e+02 -4.679725886318960306e+02 -3.609563462266422675e+02 -3.075845636649406742e+02
-3.824582426323378304e+00 -3.572682946703646394e+02 -3.538538789000183442e+02 1.799202448931937965e+02 1.750357368790385237e+02 -3.556273065708501235e+02 -6.340885539279224759e+02 -8.299911603045402444e+02 -6.807198793901586669e+02 -4.653096334661550486e+02 -3.583403032617696340e+02 -3.058019277045426634e+02
-3.725146881482390260e+00 -3.570198358549999966e+02 -3.544848981793488178e+02 1.803550344076853094e+02 1.752823444195950060e+02 -3.567888924693209560e+02 -6.343047023152711290e+02 -8.303250343146305568e+02 -6.790096825377478353e+02 -4.623473567531486879e+02 -3.552628148653844278e+02 -3.043666223090326639e+02
-2.249390727711394256e+00 -3.569028435410963880e+02 -3.556253592952554641e+02 1.792249498740061142e+02 1.768569055673396804e+02 -3.568568545170453490e+02 -6.357731713039205488e+02 -8.292207667122644352e+02 -6.767444093665899345e+02 -4.592461959698113105e+02 -3.527325189788057287e+02 -3.034611642227357606e+02
-1.213323381265285272e+00 -3.572031595446304664e+02 -3.565058096597076656e+02 1.787301526792089987e+02 1.772069784190791211e+02 -3.576660713803625526e+02 -6.364127397378457545e+02 -8.290557785914110127e+02 -6.749474721461659783e+02 -4.563434546980149094e+02 -3.509095970315769364e+02 -3.023722431041927621e+02
1.412317927576396848e+00 -3.560359198298080514e+02 -3.576378123651500687e+02 1.767588562281541726e+02 1.793569720963951397e+02 -3.576404015232431561e+02 -6.373313728937262113e+02 -8.289591625419509455e+02 -6.731899533498872188e+02 -4.536154700533542155e+02 -3.492961572307423808e+02 -3.019255014550694227e+02
2.858112512935274907e+00 -3.537735174393907869e+02 -3.581800149037870824e+02 1.750149691825588718e+02 1.804533481284737206e+02 -3.563316036358196470e+02 -6.366963076211408179e+02 -8.286168839504330208e+02 -6.726338066573800916e+02 -4.524671238803349524e+02 -3.481007751446698535e+02 -3.016262257427881082e+02
5.373458718604831930e+00 -3.520200469718587328e+02 -3.574028908345823652e+02 1.727895901327622141e+02 1.817681266615731488e+02 -3.555333783132869030e+02 -6.373345262968435918e+02 -8.277174005662458285e+02 -6.712834514762507752e+02 -4.514130591392589622e+02 -3.461035823480935960e+02 -3.006585142273617066e+02
6.865638094582835471e+00 -3.493407735630309503e+02 -3.569765864533140984e+02 1.705526176124989206e+02 1.819555098672642828e+02 -3.540499255853472391e+02 -6.362952559949866327e+02 -8.278640873470826591e+02 -6.705259986690964524e+02 -4.504017802971224569e+02 -3.456975880599749757e+02 -3.013453837008714800e+02
9.396577438733318743e+00 -3.464263427669735620e+02 -3.562163973812902213e+02 1.675126943118082465e+02 1.820824471131985547e+02 -3.513194047624645577e+02 -6.356213782402249990e+02 -8.260352781639220439e+02 -6.697881328371622658e+02 -4.499264917500236152e+02 -3.442431235630670585e+02 -3.002559923351847146e+02
1.047908940179151571e+01 -3.427588255775723951e+02 -3.536811372723525437e+02 1.662049107627753983e+02 1.819410293649121400e+02 -3.487668833649487397e+02 -6.342590310183842348e+02 -8.262149747872614398e+02 -6.697901967180088150e+02 -4.495950927700129682e+02 -3.435529590222959655e+02 -3.000266294030555514e+02
1.163608244107903111e+01 -3.393009052026837935e+02 -3.517175000051888674e+02 1.635930130262428861e+02 1.816986449710216505e+02 -3.466516082906358633e+02 -6.336179582920738085e+02 -8.254634783205277699e+02 -6.681575446733822901e+02 -4.487691752976071484e+02 -3.427896095400424201e+02 -2.999451732851428574e+02
1.253948644809150537e+01 -3.358494668481478698e+02 -3.479316239831161397e+02 1.621757973637620296e+02 1.802195090391255974e+02 -3.426482999814919026e+02 -6.323233208063815027e+02 -8.240203610883231704e+02 -6.677052795243544097e+02 -4.487967459729816255e+02 -3.427289918320672655e+02 -3.000131169767757342e+02
1.313033172301953400e+01 -3.322556176906404630e+02 -3.461781682199269881e+02 1.596189125136122584e+02 1.796766746701319448e+02 -3.393340877439420069e+02 -6.311648884942420636e+02 -8.222399219834568385e+02 -6.662111854395424189e+02 -4.471578392006674676e+02 -3.416365016533188168e+02 -3.003921978304466620e+02
1.331753397286581198e+01 -3.288657714807977754e+02 -3.431139098921998425e+02 1.581637114619946658e+02 1.781806169965117590e+02 -3.362525830422295599e+02 -6.290165304261258825e+02 -8.211637749677382772e+02 -6.656371879579241977e+02 -4.467215987034767863e+02 -3.419446173092484287e+02 -3.013176553853163568e+02
1.464637962073484800e+01 -3.256092996834935320e+02 -3.413746566638670288e+02 1.556408888033196547e+02 1.780754712773723725e+02 -3.338433714678629940e+02 -6.288618634264953471e+02 -8.191228386807230208e+02 -6.646223221200930311e+02 -4.451491700437942427e+02 -3.399643859681711433e+02 -3.006946012594112290e+02
1.592558218017141591e+01 -3.236459252059476626e+02 -3.404149556863237081e+02 1.541461904240367744e+02 1.779060391746434675e+02 -3.318591778761983164e+02 -6.269787477077203448e+02 -8.183044608522039880e+02 -6.653596561606549358e+02 -4.451040175007507287e+02 -3.403185392361574486e+02 -3.016385909684865965e+02
1.777145814595798257e+01 -3.205458102949800150e+02 -3.395469383018948406e+02 1.516831338038071237e+02 1.780469815393185513e+02 -3.303355521843777183e+02 -6.273573872541606988e+02 -8.159000552495085685e+02 -6.645884256483274157e+02 -4.448700030815299442e+02 -3.392753369247250816e+02 -3.024781523264771863e+02
1.882136252172324831e+01 -3.191122898426564802e+02 -3.382796276585939381e+02 1.500629252782326830e+02 1.783576529793760699e+02 -3.295138466761439986e+02 -6.261739968406302523e+02 -8.162852273192498842e+02 -6.658299607760158096e+02 -4.451267313851366225e+02 -3.389647911180492770e+02 -3.032363123557491917e+02
2.089504302019270199e+01 -3.171663467122442626e+02 -3.380433944868907474e+02 1.481671816785688520e+02 1.793343198895924786e+02 -3.284199885242302912e+02 -6.261849065255053119e+02 -8.157310873248970893e+02 -6.658175622009357539e+02 -4.448930984657598060e+02 -3.394145158680676104e+02 -3.031040833170214341e+02
2.134636483574564636e+01 -3.162733290419988634e+02 -3.375616894741895067e+02 1.473156944941812299e+02 1.787176347749762328e+02 -3.274706784161426185e+02 -6.256762107882868804e+02 -8.162006600797155897e+02 -6.665944039010123561e+02 -4.450509347919444849e+02 -3.402348650971368897e+02 -3.053410590167878809e+02
2.227236762220430322e+01 -3.139753066017330525e+02 -3.363574385279894727e+02 1.448605918098313623e+02 1.792634896124074544e+02 -3.264594263288589673e+02 -6.267831967530077009e+02 -8.162144201638570848e+02 -6.674404957261416484e+02 -4.453270109396113412e+02 -3.401875383110851203e+02 -3.064552309944972421e+02
2.221292037475265957e+01 -3.138850132804938653e+02 -3.359261404488959784e+02 1.454079687992428092e+02 1.787467952375792208e+02 -3.254337486037058511e+02 -6.268247357405136881e+02 -8.174651616382440125e+02 -6.686523190207452672e+02 -4.466892378974736744e+02 -3.418169943647523610e+02 -3.076655984820382059e+02
2.341260750833818705e+01 -3.120106725293946965e+02 -3.357111934367563890e+02 1.441837801324100496e+02 1.792415618290186785e+02 -3.245150833338566940e+02 -6.276366379965554643e+02 -8.165869604158723405e+02 -6.694675564293372645e+02 -4.474734989954270645e+02 -3.423440225738901859e+02 -3.084402449620276343e+02
2.272640790052397719e+01 -3.122659452930049042e+02 -3.341917231580447378e+02 1.440921614887912199e+02 1.787940433460984195e+02 -3.233359166301315213e+02 -6.280603940412188422e+02 -8.174241041763040130e+02 -6.702539020410029025e+02 -4.482090913312066505e+02 -3.433552119402394851e+02 -3.093028113321727801e+02
2.284651769264738519e+01 -3.116526927042686452e+02 -3.341197991870487840e+02 1.442102556832946050e+02 1.788697120583456126e+02 -3.229784238499253775e+02 -6.276342727784657427e+02 -8.162480411039491628e+02 -6.698161479894563399e+02 -4.479128516032961329e+02 -3.427095912634202364e+02 -3.087083733927781850e+02
2.123776080374469544e+01 -3.127233179363133786e+02 -3.334870074964558739e+02 1.458264433036961236e+02 1.770534414604027234e+02 -3.229011233393139833e+02 -6.266113609474310806e+02 -8.156814586095553068e+02 -6.698429757778615112e+02 -4.476424509476458979e+02 -3.432438728968106147e+02 -3.093480892807916121e+02
1.994341823899024035e+01 -3.132632228226610209e+02 -3.324952445730888826e+02 1.465361347907063134e+02 1.769728591147768668e+02 -3.235416737673673424e+02 -6.274479320085700920e+02 -8.143035537018772629e+02 -6.680614208297917003e+02 -4.467525402740865275e+02 -3.428311662806870572e+02 -3.082409619608927756e+02
