-1.400000000000001776e+01 5.999999999999860556e+00 1.999999999999995026e+01 -1.599999999999999112e+01 8.000000000000104805e+00 1.299999999999990763e+01 3.600000000000000000e+01 1.100000000000001243e+01 1.499999999999998934e+01 3.099999999999988276e+01 2.599999999999989697e+01 5.599999999999988631e+01
-4.035740213757909700e+00 1.496738090600514859e+01 1.999967709318334386e+01 -1.001521608811661324e+01 -3.959612157921172937e+00 1.798077043607230863e+01 4.000221775328678575e+01 1.199541165609299220e+01 1.699217994615966631e+01 3.100772189489640596e+01 2.900293411777539987e+01 6.001808052034255780e+01
1.100036957196033782e+01 2.700202085358618831e+01 1.900043684961111268e+01 -3.997882661970472373e+00 -1.801389686066965723e+01 2.300970375179493388e+01 4.298489574625470055e+01 1.499517172020198785e+01 1.800290665110216537e+01 3.497995457273889031e+01 3.398078010421895812e+01 6.695444999746652570e+01
1.099422392063608456e+01 2.799344675268830684e+01 1.900773913138258564e+01 -4.009629681341654539e+00 -1.498587316191828833e+01 2.199387228777201742e+01 4.599691714090838701e+01 1.500775727459716791e+01 1.899764332117077714e+01 3.501712191223986537e+01 3.600409690558799980e+01 7.002864335757227821e+01
9.018427487387480568e+00 2.403343634205102219e+01 1.501649715672407481e+01 -1.999936465953418896e+00 -1.602140169230333200e+01 2.002068392745447056e+01 4.997191112838227411e+01 1.399143451687891293e+01 1.700956720352132479e+01 3.597754025240062958e+01 3.897656763924808843e+01 7.195530479735882068e+01
8.990343561568190367e+00 2.100642631048729569e+01 1.301264239047219995e+01 -2.006673791618117431e+00 -1.201137551279344073e+01 1.899755749719232867e+01 5.200645678432973540e+01 1.600279338950945984e+01 1.700327566133505997e+01 3.602044532545357924e+01 3.901902263985512320e+01 7.303358020782735593e+01
7.021009195077885678e+00 1.801340064014462072e+01 1.100148574877801266e+01 -9.999182693187832482e-01 -1.000928815740742017e+01 1.504344111551377949e+01 5.298400942981329820e+01 1.302260981905230608e+01 1.402202272878391831e+01 3.500227104738755912e+01 3.898864267687286400e+01 7.199032827635942056e+01
8.963952803103262923e+00 2.096800167030284001e+01 1.200021441536188682e+01 -1.009039325734112813e+00 -1.295507667199379043e+01 1.496000880513860132e+01 5.006883168995035760e+01 1.199775360499624988e+01 1.300696335591023356e+01 3.006121442730686510e+01 3.409513901121998458e+01 6.608734059926729287e+01
8.057038646782162417e+00 1.905008067426964757e+01 1.098992565705967728e+01 1.575681094282491146e-02 -1.305707865030438342e+01 1.602710184587451181e+01 4.401428087496903174e+01 1.200150579935058737e+01 1.101183564450399999e+01 2.797962157530995597e+01 2.601371142129022473e+01 6.199361479488007376e+01
-8.520991301024136710e-01 1.602982878471372175e+01 1.787715691767996162e+01 -8.831607608389882458e+00 -5.100953158418001898e+00 1.693891997677448202e+01 4.400573405434955987e+01 1.199933861538524482e+01 1.198321991810271392e+01 2.704284185893098069e+01 2.700257877611667112e+01 5.904804841497208656e+01
-1.687060851234058845e+01 1.007418292172175001e+01 2.695674278265954982e+01 -2.194051050375701095e+01 4.911977912258263856e+00 2.002371814662015836e+01 4.301478641079178544e+01 1.200430052758918897e+01 1.298023264660866616e+01 2.597455671186811443e+01 2.502231452152626900e+01 6.093599113671135115e+01
-1.413905236505683050e+01 8.976120672383631316e+00 2.408977630469129849e+01 -1.810215818130116716e+01 4.086758555111847713e+00 1.702251410045607471e+01 4.102385318185354635e+01 1.004646920531596166e+01 1.402802892453922112e+01 2.603500982411782871e+01 2.401688857250037756e+01 5.909738812030725796e+01
-1.095092273174657116e+01 8.991314715265051660e+00 2.096980224468586584e+01 -1.497832140799697775e+01 9.921936523949919096e-01 1.600834317015598884e+01 4.195878101694590612e+01 7.986994974580267304e+00 1.002456234969723248e+01 2.497910763782520149e+01 2.202115142797960701e+01 5.792137578515487917e+01
-9.126621721445474122e+00 1.486826469158230601e+01 2.301375870209921715e+01 -1.601619987324272287e+01 -1.891817311237754984e+00 1.793135193335917776e+01 4.300464525223209478e+01 9.987734675776970050e+00 1.293774064899607268e+01 2.600068543416882960e+01 2.295574010584230962e+01 6.004499416444371462e+01
-3.999048460983162911e+00 1.897343228060500664e+01 2.291861062638499291e+01 -1.402429182702947763e+01 -6.001770032867665527e+00 2.193576093133097871e+01 4.589366132082200522e+01 9.009658325828940661e+00 1.398580050596101998e+01 2.696190601581854551e+01 2.498820404892379798e+01 5.896153344466684132e+01
-4.023826826917898281e+00 2.579644858286572173e+01 3.184320955835796951e+01 -1.589566653706519794e+01 -7.891826498230262388e+00 2.883062187033558743e+01 5.095087924204433705e+01 1.190143103957601234e+01 1.888481061884737144e+01 2.896754228203690573e+01 2.596914798048801742e+01 6.002010623867387551e+01
-3.993106099138547194e+00 3.202220452834523456e+01 3.599462171070308614e+01 -2.099850115689112684e+01 -1.297375344120362861e+01 3.402238534827667849e+01 5.394038316452079584e+01 1.501890841499229090e+01 2.006654447816939069e+01 3.098549692890154006e+01 2.605302717878724650e+01 5.998182067838364162e+01
8.117227948508938251e-01 2.904221422631629324e+01 3.219134029238680483e+01 -1.420423480757339441e+01 -1.298645776274986829e+01 3.009171511504963448e+01 5.215651716665453819e+01 1.204894354971354353e+01 1.800141993272238494e+01 2.810454998688941330e+01 2.302166959345194286e+01 5.809227068227047397e+01
5.070406216268893651e+00 2.706451320223310830e+01 2.210133407861786026e+01 -8.990212361569655641e+00 -1.304137533251691750e+01 2.605970109569650006e+01 4.506972676426840962e+01 1.198633215894842508e+01 1.609170881295044353e+01 2.503034924560196117e+01 2.302897557725104249e+01 5.503793988997929176e+01
-8.511392224418961039e-01 2.405058398409525466e+01 2.677465074925942545e+01 -1.283644145761100930e+01 -1.007806957224609157e+01 2.692143008653436809e+01 4.402385440284211882e+01 1.008454289653064961e+01 1.395935857324267459e+01 2.208792655069712296e+01 2.004838845211840592e+01 5.112294744957329584e+01
-7.867026981584283263e+00 2.298924750318651888e+01 3.200752101643183778e+01 -2.088579000449172796e+01 -6.079187755871450882e+00 2.708272748060968027e+01 4.300257601207971447e+01 8.947957032817372536e+00 1.695827499268527561e+01 2.097201713648952293e+01 2.094612727330254032e+01 4.897336297147913342e+01
-5.260635712863741986e+00 2.493500374235949124e+01 3.006402823043382000e+01 -1.723623084491728363e+01 -7.831708276965028581e+00 2.687783534618357351e+01 4.300104258811355606e+01 1.098197802558180847e+01 1.606357197427167804e+01 2.007325739282521226e+01 2.104907411831835518e+01 4.903027462328894615e+01
1.050788560048395048e+00 2.694400747079493286e+01 2.800150208900943838e+01 -1.293228964790997892e+01 -1.202624153628612369e+01 3.004484795776377482e+01 4.490165759337946838e+01 1.288579040824615340e+01 1.496313950712524310e+01 1.991293270730998799e+01 1.903994296527378438e+01 4.991948601933993501e+01
-2.958559329868807097e+00 2.992397857532013461e+01 3.089000511086852185e+01 -1.596896842122730220e+01 -9.999766631337168477e+00 2.890041739621464245e+01 4.606242120968683906e+01 1.601900895079070608e+01 1.791429608362078341e+01 2.201651378139796478e+01 1.894981099953569270e+01 5.196871095563225396e+01
-2.958537497084947177e+00 3.099171800294760715e+01 3.295468876647306189e+01 -1.787868095634314969e+01 -1.100324979886045540e+01 3.394235486956807790e+01 4.588083089950047366e+01 1.398969204405641698e+01 1.995027063593002481e+01 2.193668975719424452e+01 2.097299547067960290e+01 5.487806053402125173e+01
-5.914795561249436950e+00 3.198288199377696728e+01 3.779093762598314044e+01 -2.192336198890418331e+01 -1.002043841233177446e+01 3.394064079643737131e+01 4.904552761176388742e+01 1.787195683318964612e+01 2.288309134926922184e+01 2.492405281243070547e+01 2.283803267153291472e+01 5.699734505423359110e+01
-7.963172576847004080e+00 3.010844522484097041e+01 4.012453106061359165e+01 -2.395795645919384498e+01 -9.058546405355498266e+00 3.702017506062905738e+01 4.601122428627100902e+01 1.808746831544887357e+01 2.595537336385884331e+01 2.695764826592555252e+01 2.987471877306484558e+01 5.795444191690538815e+01
-7.077358739279645761e+00 2.801772369017671238e+01 3.509225619597538781e+01 -2.214980748676073219e+01 -7.981866938447999438e+00 3.120450532651192788e+01 4.797820026060617238e+01 1.695940763988988209e+01 2.510068277203966858e+01 2.609687117862304717e+01 2.720117238395660664e+01 5.708814769415344870e+01
-6.048004867600050183e+00 2.797065423169043186e+01 3.315939736625742995e+01 -1.907443354734980190e+01 -8.942109743272789402e+00 2.996563095480406247e+01 4.606108082062778664e+01 1.801599228792120044e+01 2.205515466655859669e+01 2.401682760560441565e+01 2.494970849208790042e+01 5.599195350611931588e+01
4.304119997621437932e+00 2.993699002570475898e+01 2.249194633873842974e+01 -9.628285145765728359e+00 -1.557760308576623309e+01 2.626132939249784570e+01 4.601250002062735689e+01 1.608810535395259933e+01 2.106324449481237693e+01 2.306269046644105813e+01 2.505995546782332184e+01 5.412974025099385500e+01
1.804636821462476703e+01 3.002101826567133358e+01 1.490429638070690999e+01 3.042002589408490998e+00 -2.402241582814287213e+01 2.290041526903972269e+01 4.405377393216244286e+01 1.496486784420683769e+01 1.900240929061048334e+01 2.291720334948305293e+01 2.492854253504555473e+01 5.292373418738204549e+01
8.313887060903907056e+00 3.093822361258358100e+01 2.271315707067772394e+01 -6.658771952026694585e+00 -1.819221892400517149e+01 2.690943541764621827e+01 4.493798844734001818e+01 1.693284168354671593e+01 2.186337026768941172e+01 2.497635298766881462e+01 2.602141939776070245e+01 5.496725528654487647e+01
6.981587573197582053e+00 3.104010378334729126e+01 2.597168024985241530e+01 -8.995732078462541637e+00 -1.701339693630393057e+01 2.795325388591732363e+01 4.501773805988279520e+01 1.795974539669108339e+01 2.301944489254155357e+01 2.591168850370850052e+01 2.595206819369248308e+01 5.594534896602555563e+01
2.286716080269499241e+00 3.097162564803295837e+01 2.880769135056137031e+01 -1.371854962067093986e+01 -1.413808367235438901e+01 2.992844490992520434e+01 4.594321805074362430e+01 1.991246996847244688e+01 2.391746464247886195e+01 2.797156158467245035e+01 2.699741644005453267e+01 5.696427634750453706e+01
-1.001810594013634592e+00 3.101079551078033703e+01 3.288854017783567230e+01 -1.700470608141037232e+01 -1.298949716325267012e+01 3.096075590891523888e+01 4.602232025048252240e+01 2.099199671226521602e+01 2.499322083911463110e+01 2.889835901794776163e+01 2.697726094339362390e+01 5.890318937247825204e+01
-1.933982304641208794e+00 3.192048926549522392e+01 3.494088420790247795e+01 -1.791604578062000641e+01 -1.296607080609667939e+01 3.289148168000266281e+01 4.691689701102727383e+01 2.191903868360170904e+01 2.593359850057391114e+01 3.191306726548330275e+01 2.795299087734306553e+01 5.998259982545217639e+01
-1.138061792698094710e+00 3.388583638280493204e+01 3.595334277690877656e+01 -1.808813104066463850e+01 -1.583206811380306966e+01 3.493490892717067453e+01 4.799040976218467591e+01 2.392177968240340036e+01 2.695588946973470001e+01 3.295342820175418552e+01 2.896645925822394929e+01 6.187283704986646882e+01
1.879613090001619025e+00 3.781164407148797579e+01 3.699469826610619094e+01 -1.606755390659239069e+01 -1.887316345538237883e+01 3.688795003466333355e+01 4.892409780565528621e+01 2.590081018261331991e+01 2.980711947006341234e+01 3.489508560164146189e+01 2.991698317420100395e+01 6.392470167816509274e+01
5.770361975499237239e+00 4.087588270570526561e+01 3.604456912705949634e+01 -1.411577341705410937e+01 -2.280271600759579442e+01 3.894596877891736142e+01 4.999518369263992668e+01 2.792130375558068422e+01 3.292969413316804150e+01 3.692094085896928846e+01 3.285934455247407726e+01 6.685384220456094795e+01
9.878597089268014386e+00 4.480381941084436903e+01 3.599838834883797745e+01 -1.205775187654632319e+01 -2.590398122472192810e+01 3.994356319088495155e+01 4.999290510989729341e+01 2.989031325789581217e+01 3.487070409941463822e+01 3.888196595237894826e+01 3.491725162261876392e+01 6.800274857380937021e+01
1.191548237620433781e+01 4.697516424587859518e+01 3.505549689960042770e+01 -1.105042646903924108e+01 -2.791744928519202062e+01 4.097875275022694552e+01 5.000815842748970397e+01 3.193427937814811202e+01 3.695568183783028360e+01 4.186216983938152225e+01 3.783580028623831026e+01 6.983922642247883061e+01
1.299036440147693661e+01 4.794415888053802632e+01 3.497557163725411300e+01 -1.003777472245858604e+01 -2.896182827311596597e+01 4.100540317934584067e+01 4.999365987577760251e+01 3.295216776046756024e+01 3.793022238328777007e+01 4.391405137146045234e+01 3.993694406015426068e+01 7.193900437781181267e+01
1.299571632067557481e+01 4.801837114752441238e+01 3.499597378443546347e+01 -9.957631650351096653e+00 -2.996360767243529111e+01 4.098963679338947941e+01 4.999627805926467516e+01 3.395366402944075190e+01 3.897602493236664145e+01 4.680528458988478491e+01 4.278108642541662476e+01 7.480067998650659433e+01
1.300928210820906550e+01 4.891435443456926890e+01 3.593562381138407602e+01 -1.097383087895252984e+01 -3.000166022263308463e+01 4.190874529422548989e+01 5.090295036199623269e+01 3.494002844020295839e+01 3.991702706707716430e+01 4.988728142096725549e+01 4.592666662379436104e+01 7.695878482219109173e+01
1.297712023398310777e+01 4.992852438623179268e+01 3.691383953887244473e+01 -1.098724809831018590e+01 -3.091066291924068921e+01 4.388832941489555850e+01 5.290421399695243565e+01 3.596292763971686668e+01 4.098711333049984518e+01 5.279576478425339303e+01 4.783122031188556633e+01 7.975031064539611236e+01
1.393126870370553938e+01 5.370904959762845721e+01 3.983778556922383274e+01 -1.194420798678050666e+01 -3.286269510115536718e+01 4.679231365016355682e+01 5.487212382434633184e+01 3.690864235521974734e+01 4.188206107346000806e+01 5.590077436659095866e+01 5.088638604582236269e+01 8.293356432196749495e+01
1.495932465230507447e+01 5.695845982854283562e+01 4.100069718497937998e+01 -1.203114749183312249e+01 -3.585636490822332689e+01 4.992540552716251767e+01 5.694190373995967747e+01 3.891752556163164911e+01 4.394985004241905813e+01 5.786599086171277406e+01 5.286514410033205280e+01 8.484719798052175577e+01
1.592345738023016644e+01 5.791760962388828915e+01 4.191989300454488898e+01 -1.197611798230219016e+01 -3.700310689457257496e+01 5.001800994976112946e+01 5.701771100962311323e+01 3.905864442589053454e+01 4.400578792967895936e+01 5.904861867676063270e+01 5.494887407168822335e+01 8.603704828992732700e+01
1.698391392514292875e+01 5.807405925958127568e+01 4.205029499212346877e+01 -1.202104968458292866e+01 -3.699479049251156937e+01 4.999990803981138754e+01 5.700803206179877947e+01 3.803682676949275532e+01 4.401877111695466738e+01 5.800539180969939679e+01 5.501120725868700845e+01 8.596275869575261197e+01
1.697829422450039161e+01 5.790097008222877406e+01 4.196806781917427287e+01 -1.197933128704014116e+01 -3.698905489594719853e+01 4.997896229391578515e+01 5.607449975588368574e+01 3.796396526068969024e+01 4.307974136814030430e+01 5.804849563698449799e+01 5.500034923170671419e+01 8.514124834306882406e+01
1.793282922259394851e+01 5.988529116793900897e+01 4.199152051084382720e+01 -1.202292688006627586e+01 -3.790184876274577874e+01 5.091619039872357178e+01 5.594187238023762632e+01 3.893761919569526953e+01 4.201861671393181297e+01 5.700719532734021300e+01 5.498506983727862973e+01 8.396421157198606977e+01
1.892012950333654331e+01 6.275528938315139271e+01 4.382334140172891068e+01 -1.196965046136631372e+01 -3.986115818723659743e+01 5.283092163123317420e+01 5.607700348470441298e+01 3.992113533909915901e+01 4.287863871823795137e+01 5.792499820509958397e+01 5.589657035899431747e+01 8.405709284137931547e+01
2.086834912622349236e+01 6.590584388167408747e+01 4.502639154897443063e+01 -1.205653526766086792e+01 -4.191430267454673242e+01 5.584737958440135941e+01 5.500261607162361344e+01 4.185279973774320439e+01 4.489007962840933885e+01 5.892129054541671707e+01 5.787592261544076422e+01 8.392405263135012206e+01
2.199735433982016275e+01 6.692663492444197004e+01 4.584595948434566282e+01 -1.101143200197812533e+01 -4.292468406917183188e+01 5.699714180197217672e+01 5.504840063734655331e+01 4.389955959283860665e+01 4.684995996325887546e+01 6.085177242649385221e+01 5.985935065159119972e+01 8.496946345295148717e+01
2.198408003550285983e+01 6.796416519395273781e+01 4.706211394444817131e+01 -1.192226789933690156e+01 -4.399691023077782859e+01 5.699371846353623994e+01 5.402545563657954375e+01 4.497740589146579282e+01 4.891434378793674398e+01 6.289616512662855285e+01 6.192207117998125909e+01 8.590128982214552877e+01
2.203806871576236048e+01 6.803492746648872469e+01 4.600714718547206417e+01 -1.205045479295651134e+01 -4.306113440331734665e+01 5.700654555612724295e+01 5.403074976329895662e+01 4.498218297909603791e+01 4.992752478251949810e+01 6.397282215097950342e+01 6.203052130754900872e+01 8.696175767616982455e+01
2.105711599252369837e+01 6.706146318046189947e+01 4.602983822116933510e+01 -1.193754200241514596e+01 -4.299825636330163547e+01 5.699281344121263970e+01 5.304534728016970035e+01 4.592872856011621252e+01 5.096350588106704294e+01 6.400908313969819119e+01 6.198701221584219923e+01 8.792836411421684772e+01
2.096706747721210462e+01 6.697002709121760233e+01 4.594135112611132854e+01 -1.296141759074157207e+01 -4.208239273175577466e+01 5.701069626363477738e+01 5.301096769278390042e+01 4.604229326056725569e+01 5.101103189449430175e+01 6.399259895883430005e+01 6.198691107867606576e+01 8.803765572382563676e+01
2.103126242297313908e+01 6.700317535503440070e+01 4.695144803474249073e+01 -1.301845358112125517e+01 -4.195709031756999252e+01 5.697231940894371860e+01 5.207432007515865990e+01 4.596499951368943471e+01 5.099590792583659038e+01 6.401263650199436483e+01 6.290753528528399841e+01 8.800040982599431061e+01
2.096196107066910130e+01 6.788601921646386472e+01 4.789162250607093085e+01 -1.296419060565755110e+01 -4.201284320916018089e+01 5.790785652984168763e+01 5.196036130104952377e+01 4.603318757628440494e+01 5.100128376651023387e+01 6.396376074368258458e+01 6.392271576886736284e+01 8.706790528052920308e+01
2.105732165693376245e+01 6.895773240867455911e+01 4.900496405924079113e+01 -1.394168454382131017e+01 -4.287384561415647255e+01 5.895780662887301560e+01 5.202824106781768876e+01 4.596463145134180905e+01 5.099857674903589100e+01 6.493811476159743279e+01 6.583399460697725658e+01 8.787011967087514108e+01
2.087498722492956205e+01 6.992223185317205036e+01 4.810198831460384383e+01 -1.318962796758869160e+01 -4.397333530786975331e+01 5.904018395730085444e+01 5.197812953992500695e+01 4.604997246670315292e+01 5.101270569972117386e+01 6.502694807214136574e+01 6.700787909057854108e+01 8.806877769547681112e+01
2.378586805087953238e+01 7.004576817570641367e+01 4.620515360277468631e+01 -1.021701394948718367e+01 -4.487988320570866563e+01 5.808466723999477210e+01 5.201563018889859791e+01 4.509155781879216107e+01 5.013430703500694108e+01 6.500080279297250740e+01 6.697645696249254854e+01 8.883348906928461020e+01
2.585135820684161345e+01 6.998068472652988703e+01 4.319232738871119892e+01 -7.218916213903720625e+00 -4.598425695179970774e+01 5.707525034073668735e+01 5.200223097460749955e+01 4.318221098793272716e+01 4.812900233663251015e+01 6.411914609807855925e+01 6.702601908027067168e+01 8.915527156664155939e+01
2.793362852332900559e+01 6.914409695453133509e+01 4.197357156194283334e+01 -5.916243670187613546e+00 -4.600644357722228506e+01 5.605364903402724508e+01 5.113159598385014704e+01 4.195281558451298309e+01 4.703566455947098035e+01 6.304491516289610331e+01 6.697029305801251553e+01 8.795905208292093391e+01
2.628360291674294658e+01 6.801368613209560010e+01 4.291890343649563277e+01 -7.854175082287627951e+00 -4.514736509074371185e+01 5.597731336848973172e+01 5.000212776746623433e+01 4.295851335243055757e+01 4.697734763528276858e+01 6.208633918079652858e+01 6.704775400482594705e+01 8.808545232354525467e+01
2.319052787444231356e+01 6.715914408283873627e+01 4.388777002951881911e+01 -9.784165145727124369e+00 -4.314356136573541534e+01 5.600543143819226088e+01 5.004559339614714020e+01 4.301513333097977920e+01 4.704028133505196507e+01 6.195131759181644782e+01 6.608554594586735220e+01 8.704394378443278413e+01
2.027101450230704671e+01 6.513804363912035456e+01 4.586029226606859766e+01 -1.281260842548832812e+01 -4.118269260867793946e+01 5.604066737662567732e+01 4.907633260513990336e+01 4.215793408458748104e+01 4.609377850527168619e+01 6.120657194842805637e+01 6.507584969669500197e+01 8.611407745254733470e+01
1.804510218103144226e+01 6.317325339171677001e+01 4.609423293210367234e+01 -1.397017402969805744e+01 -3.912407167212675319e+01 5.421169824348654487e+01 4.810443323608961919e+01 4.010983974597898793e+01 4.506942815806515057e+01 5.906450129932196802e+01 6.409001564683376273e+01 8.507331003313774431e+01
1.798560421857409963e+01 6.200893708729300613e+01 4.507597052559155770e+01 -1.406069484524526025e+01 -3.804756006726284312e+01 5.298103579162327037e+01 4.702433948341552394e+01 3.911671072901192048e+01 4.411463323594401231e+01 5.816745148045977487e+01 6.306347549955111731e+01 8.320451112483655720e+01
1.885668041667973682e+01 6.118016064120524078e+01 4.323517123680419161e+01 -1.222025017605698416e+01 -3.797291725772044657e+01 5.221086011029131413e+01 4.703786814401252059e+01 3.715677914647147162e+01 4.217737553308550247e+01 5.607822436536505251e+01 6.213516559825151830e+01 8.199981867866989660e+01
2.001104527293009028e+01 5.910719679157991635e+01 4.108815990829927500e+01 -1.009865629101549445e+01 -3.803523256197288305e+01 5.005346570649412996e+01 4.606346927807567226e+01 3.605060593212092357e+01 4.101144940978826270e+01 5.601646979833540030e+01 6.014429091541552452e+01 8.115536571314805769e+01
1.912151470773121531e+01 5.810383628610780704e+01 4.010004329643570742e+01 -9.924755307488840828e+00 -3.714003809705901915e+01 5.001884753281250084e+01 4.600462131214085559e+01 3.511508118830850123e+01 4.019235075887333153e+01 5.508863353828946430e+01 5.907709373703114863e+01 8.002938018200347869e+01
1.720700301113243214e+01 5.704316496013181848e+01 3.988756574871437977e+01 -1.094338582678978078e+01 -3.514335228795950883e+01 4.995043031342556361e+01 4.510561992990544411e+01 3.403884587975105092e+01 3.807034456308864634e+01 5.494712206418316924e+01 5.805101819876229996e+01 7.911280206783328595e+01
1.592944030540689582e+01 5.697117167092343237e+01 4.101255375781765622e+01 -1.103496201388826847e+01 -3.490389424307549859e+01 5.009568277926735647e+01 4.493565783943144964e+01 3.400642286648147206e+01 3.803234092381505604e+01 5.506983962603956684e+01 5.801996007730216576e+01 7.894284745592140951e+01
1.780806916226142889e+01 5.786553267820787738e+01 4.008574497043800022e+01 -1.014956034744970026e+01 -3.591368332483256154e+01 4.900397271249202191e+01 4.505525902676721017e+01 3.314599702487894461e+01 3.706290814357257091e+01 5.405535288422341011e+01 5.708211160703415032e+01 7.819573843536069546e+01
1.978287933195305470e+01 5.897647316771537618e+01 3.915978406238876630e+01 -8.175473611647014138e+00 -3.774682953474783886e+01 4.910095935976455905e+01 4.494183991442524473e+01 3.201222669851945568e+01 3.701819887781434915e+01 5.400304075190488362e+01 5.699640289649460811e+01 7.699663825748483248e+01
2.272525216625840372e+01 5.897440520201688940e+01 3.630708487059495582e+01 -6.215482012228474851e+00 -3.990576880313221864e+01 4.713566385704892525e+01 4.508485166425226964e+01 3.204409299101033781e+01 3.608482173733399634e+01 5.313950686229877363e+01 5.610807439244347705e+01 7.618141178041868500e+01
2.488000838215363331e+01 5.986767937039176957e+01 3.407311193092778723e+01 -4.097328194558875758e+00 -4.087198826208221902e+01 4.696367565972681035e+01 4.404613275114888182e+01 3.108654504621902248e+01 3.599384833903076952e+01 5.206015863640293873e+01 5.596959962586153381e+01 7.500742868459998647e+01
2.592568128332989019e+01 6.096968316965976697e+01 3.394710421271276601e+01 -3.989354861372188754e+00 -4.196866219492473249e+01 4.696551217296351410e+01 4.399418234353980495e+01 3.092806583835749734e+01 3.512104577824428731e+01 5.110439842392494114e+01 5.514500230789359136e+01 7.417879228744254760e+01
2.608398331363184042e+01 6.096423108777592859e+01 3.567215638830107594e+01 -3.924205657941776337e+00 -4.200944649646514506e+01 4.872373345056946903e+01 4.399321584633998583e+01 3.192487392364918719e+01 3.492914276061031842e+01 5.092233364031586262e+01 5.491675582416461054e+01 7.301308836232098542e+01
2.426646100829547592e+01 6.192872830762978964e+01 3.965060336705872146e+01 -6.598425333398808768e+00 -4.118876329714370144e+01 5.090900304664793907e+01 4.402627481828037759e+01 3.204180413155689422e+01 3.505356032196372951e+01 5.109653431416129621e+01 5.426209501181414652e+01 7.217899522025746251e+01
2.129698080337592359e+01 6.120388001730463401e+01 4.192204429454513814e+01 -9.816438349481611425e+00 -3.915969807212462683e+01 5.105745672729082685e+01 4.316336239780159900e+01 3.196150630934085868e+01 3.495758425652952894e+01 5.006333690297820027e+01 5.207481030592570193e+01 7.101694012725572236e+01
1.830006507465211030e+01 5.920559886912536030e+01 4.203926976264251891e+01 -1.175512618832240008e+01 -3.727729347458565456e+01 5.011745615595964409e+01 4.118177989160115970e+01 3.204314718131018225e+01 3.502957002874516235e+01 4.914720277748652677e+01 5.119116879693897459e+01 7.018051969263203205e+01
1.529933813920293062e+01 5.634011274596922192e+01 4.193482291974822829e+01 -1.387896151683043655e+01 -3.425555057478152321e+01 4.906937510819879833e+01 4.005744220847962822e+01 3.194398111955403508e+01 3.500334144317269391e+01 4.803998455465826112e+01 4.913944354102162038e+01 6.901967651981586016e+01
1.230903309346065733e+01 5.408721700803702959e+01 4.291418047399924518e+01 -1.485496901783967694e+01 -3.220210214460479392e+01 4.895423745093135892e+01 3.913693316326458671e+01 3.209438804772702269e+01 3.413887547649554222e+01 4.718497848261717564e+01 4.811479851900688942e+01 6.818317014616329175e+01
9.297588113785737463e+00 5.312683732416245874e+01 4.382385777023530693e+01 -1.679387233500517240e+01 -3.017505273362371909e+01 4.905782357184291698e+01 3.807006867715188747e+01 3.103659755956922695e+01 3.390215530356815776e+01 4.595454152395561209e+01 4.705530544809270310e+01 6.702098725504038157e+01
7.083530006774037879e+00 5.287369117122739937e+01 4.588414004288296866e+01 -1.799551888669359911e+01 -2.903896979764976649e+01 4.889365694207280910e+01 3.713685311721352633e+01 3.104194893724663373e+01 3.409461313524661819e+01 4.694897144493362617e+01 4.698019556591225410e+01 6.618819747830333711e+01
7.786606520835183787e+00 5.397225327505687176e+01 4.519165271101022086e+01 -1.717760643787051222e+01 -2.977196480868648720e+01 5.001688473233832610e+01 3.608144915352436044e+01 3.010578338069247195e+01 3.389140317685119896e+01 4.697637151043969084e+01 4.703262795382410388e+01 6.501670484844062514e+01
9.799334634212794271e+00 5.399468052248855798e+01 4.409391615409306553e+01 -1.522077659494249069e+01 -3.188424681441648190e+01 4.827575000014135753e+01 3.436610466569970868e+01 2.915400991580794354e+01 3.416716294787191543e+01 4.709953695725095457e+01 4.616203337247159766e+01 6.421594820923277780e+01
1.179626615444150239e+01 5.324720877112234518e+01 4.149362050118013201e+01 -1.321177153207671751e+01 -3.204416754927387245e+01 4.620964998683272995e+01 3.039305473047570061e+01 2.721778519920625428e+01 3.216935949493952052e+01 4.523196952192202502e+01 4.426798391363606555e+01 6.219846618669638616e+01
1.294704537617532658e+01 5.032557528426158200e+01 3.733079325162424311e+01 -1.122451900476533204e+01 -3.119550081458325863e+01 4.339367033485976322e+01 2.732124005138729572e+01 2.525446572668384349e+01 3.032726234518467834e+01 4.325978738893535080e+01 4.132656149600893514e+01 5.942794413929338759e+01
1.385634330604202269e+01 4.735780259742852394e+01 3.437027075269755017e+01 -9.194990262108090562e+00 -2.916233741183702932e+01 4.025658656218061537e+01 2.427904609034349193e+01 2.309001408665656996e+01 2.722380146792261257e+01 4.032226507424120143e+01 3.914003330474527331e+01 5.621254468019002104e+01
1.413704893708450427e+01 4.427161692611498722e+01 3.126591889569409233e+01 -8.041885917607329404e+00 -2.815050081796667314e+01 3.821427283031675159e+01 2.299510924899766806e+01 2.383743509702657448e+01 2.610255405193497680e+01 3.816052569402260985e+01 3.808163632461982218e+01 5.424985461304263623e+01
1.303826045988314419e+01 4.222375896925204586e+01 2.920425804833375594e+01 -7.971746424548375565e+00 -2.620428732542610106e+01 3.623932981044969637e+01 2.304131954981950514e+01 2.410015950896504933e+01 2.506463760947202601e+01 3.705501801391136496e+01 3.795682631568049459e+01 5.297885601207014616e+01
1.224330716597287960e+01 4.021269710290768984e+01 2.802689388331835829e+01 -8.816616053883894466e+00 -2.511388475998821335e+01 3.418313761479642920e+01 2.289678445231521664e+01 2.388911700075696842e+01 2.499529575951363114e+01 3.699345897221941470e+01 3.803221218334244469e+01 5.305694715383886972e+01
1.010345786362497833e+01 3.826275959294203233e+01 2.800841906161229744e+01 -1.001499022626102864e+01 -2.326157323863986548e+01 3.309470881027620237e+01 2.475404052433630042e+01 2.493754790617234818e+01 2.497439675336174503e+01 3.697996711736508502e+01 3.797527365132116728e+01 5.293458978922928537e+01
1.001511484956793652e+01 3.614762844525372998e+01 2.798492358014150128e+01 -9.095656352273291390e+00 -2.200854998514276062e+01 3.210282607585659065e+01 2.595709328289033380e+01 2.502397227767868415e+01 2.507631194491325388e+01 3.707080132973383257e+01 3.801588811138321233e+01 5.307175237525216716e+01
9.888742706684171324e+00 3.591427351216230335e+01 2.801796273954824557e+01 -9.002091254087588368e+00 -2.198974511792336983e+01 3.192246874489551089e+01 2.682148775141845221e+01 2.496005701270975408e+01 2.405714786620524492e+01 3.605738434596213438e+01 3.800049071310461102e+01 5.290799744148430506e+01
1.179008871485789811e+01 3.685658890606306670e+01 2.796952993839919799e+01 -8.131916186984781802e+00 -2.281392875013216326e+01 3.284936555250627777e+01 2.793414725844539603e+01 2.582590958523256575e+01 2.478479392000702575e+01 3.681058169592874663e+01 3.794474175607572164e+01 5.386805698502431028e+01
1.211030869864204895e+01 3.865975716510970983e+01 2.877611383794983269e+01 -8.689221403792942056e+00 -2.393234760099556624e+01 3.468955098031208450e+01 2.954133273411854788e+01 2.769915195020227472e+01 2.673272049776427650e+01 3.790479996965763121e+01 3.964718066331671764e+01 5.569687229353598212e+01
1.185318020063908406e+01 4.241485953486903071e+01 3.158561819957836292e+01 -1.090331510143088423e+01 -2.554828738074403560e+01 3.760235292295196530e+01 3.440616627615473533e+01 3.062633120751180371e+01 2.956541383888035668e+01 3.963880103535186805e+01 4.262435760072039415e+01 5.778577612673223740e+01
1.447614537453673655e+01 4.813674776830515611e+01 3.465433191064616381e+01 -1.102291720584179480e+01 -3.034560694707192852e+01 4.143087950278450649e+01 3.854656317959754830e+01 3.359951563588916201e+01 3.348641434628642344e+01 4.266340180777834945e+01 4.644466603291841977e+01 6.053274977054822159e+01
1.936613718871656076e+01 5.599410045158614224e+01 3.766943971189520113e+01 -1.023770574355178375e+01 -3.614917903047594905e+01 4.639774590029566070e+01 4.250967423189040062e+01 3.750447501320847010e+01 3.755240911962729911e+01 4.558859987107851452e+01 5.057625341401801933e+01 6.371473320699352172e+01
2.438973731488695762e+01 6.325033432440201864e+01 3.899600353700425615e+01 -8.178292879083246092e+00 -4.324237227865155120e+01 5.058757332473137325e+01 4.572430348106799869e+01 3.996494098887301760e+01 4.067801933471941567e+01 4.869774046839799553e+01 5.369234623252186367e+01 6.656645526650714828e+01
2.862854828899423154e+01 6.848246680967459099e+01 3.974669504485400751e+01 -7.145622801309365002e+00 -4.762846437685811196e+01 5.362773236748041938e+01 4.773683287904803052e+01 3.993295542586271551e+01 4.281601186449130836e+01 5.075031090422695712e+01 5.499611244291269685e+01 6.891410408122855813e+01
3.079107239233347570e+01 7.165908926846456950e+01 4.177242347796438082e+01 -6.034242313046830120e+00 -5.062719449774478164e+01 5.660312557735168326e+01 4.977382033178557208e+01 4.088185681766223212e+01 4.388815085156529250e+01 5.277813976933568796e+01 5.498598145860038500e+01 6.979655880611764474e+01
3.197120972789462101e+01 7.535175298435844127e+01 4.444517416171043322e+01 -6.795374900802590545e+00 -5.282228583276895506e+01 6.038165584382170437e+01 5.167682221924872721e+01 4.181593490746906383e+01 4.486953178762192351e+01 5.392701894867840196e+01 5.498300216281039354e+01 7.095544215650021158e+01
3.194182031932359322e+01 8.038293573816208948e+01 4.933430407003969975e+01 -8.672412950169134049e+00 -5.462631955872184619e+01 6.538912944451432452e+01 5.461627450738376410e+01 4.372928787793350125e+01 4.584930147956886515e+01 5.479092682268536407e+01 5.581587893226761565e+01 7.178232842483058107e+01
3.287746018376849833e+01 8.602991011241917363e+01 5.511283309677381936e+01 -1.162793328595977371e+01 -5.838772023507382158e+01 7.023433187687163581e+01 5.753039493693577100e+01 4.571136540921941105e+01 4.764546070080398721e+01 5.674608115471205139e+01 5.688259966693204461e+01 7.296516582864654765e+01
3.379233049966029512e+01 9.399060719440899447e+01 6.138245770892523012e+01 -1.378407515359509006e+01 -6.335635519995265952e+01 7.705579076428786323e+01 6.225989498022916280e+01 4.853207635718225532e+01 5.061735355862303720e+01 5.867903027671594884e+01 5.864535690043169325e+01 7.374462712020817889e+01
3.580079624551698458e+01 1.010987320851984492e+02 6.541959654660865908e+01 -1.570406176602195814e+01 -6.755264684741425185e+01 8.330558427900334095e+01 6.740450785861489180e+01 5.242887354765471741e+01 5.353823455661908071e+01 6.161448023640245708e+01 6.081405604594991843e+01 7.576691312662813971e+01
3.608140025734078904e+01 1.073284774938499169e+02 7.034497778712712091e+01 -1.775155737572365311e+01 -7.063800445262376115e+01 8.835316297404725105e+01 7.154793451482228761e+01 5.655423378700005088e+01 5.749830025286642865e+01 6.377662940144168857e+01 6.265037796074776111e+01 7.771999788421261712e+01
3.593409237253143829e+01 1.115070901120835600e+02 7.452364902204168118e+01 -1.972730976447945039e+01 -7.277870291339674225e+01 9.254591109763444479e+01 7.382876688626667772e+01 5.882891469237347337e+01 5.987806448439038576e+01 6.575001130754907308e+01 6.483327618627163247e+01 7.895812405960732860e+01
3.678640841740659795e+01 1.146984183005538398e+02 7.768031125648153079e+01 -2.101320754369741195e+01 -7.468609418439733361e+01 9.561828273437060943e+01 7.493766917364339974e+01 5.989924827260366413e+01 6.084286574410393200e+01 6.618150401738188293e+01 6.587011738956962859e+01 7.980563191878167117e+01
3.875189413388071813e+01 1.166488078508570965e+02 7.898382522662230087e+01 -2.014657234480313974e+01 -7.675948003176910106e+01 9.782825939288277084e+01 7.420967657973210407e+01 6.005769553310003062e+01 6.114843664386658162e+01 6.503349184841313502e+01 6.610185962642653124e+01 8.014764053051661108e+01
3.989420666882394073e+01 1.196568516583673016e+02 7.895208027589129074e+01 -1.990750219973616808e+01 -7.870700656267679562e+01 9.881273103819131620e+01 7.385252836439047996e+01 5.992634307842932628e+01 6.005300764867014607e+01 6.502262221652469520e+01 6.586278399926257521e+01 7.984760688698969489e+01
4.087942720030376620e+01 1.209236424388952145e+02 7.984404987405548582e+01 -2.012105407377087118e+01 -7.999902076988486499e+01 1.007348745567519614e+02 7.416919007211726012e+01 6.083097407037020332e+01 6.001128359577059967e+01 6.496310398292264665e+01 6.694519325348311156e+01 8.019900165881362852e+01
4.105595820127926032e+01 1.218869866725538031e+02 8.012962866472813062e+01 -1.907362528920783973e+01 -7.994575431903255947e+01 1.011942795255900904e+02 7.303316715982379037e+01 6.192952923781293606e+01 5.996783270120187836e+01 6.504554946998784715e+01 6.697993251267754999e+01 7.896405732703583169e+01
4.096042359461215909e+01 1.212842177801308452e+02 7.909118402825363603e+01 -1.900351103027249167e+01 -8.009994550848976758e+01 1.000159988879266422e+02 7.303144319662605710e+01 6.129152436975198981e+01 6.005167839061208213e+01 6.494538752227056477e+01 6.707283269216199528e+01 7.987636138027929178e+01
4.105063628452300151e+01 1.200007715780201210e+02 7.893677763550135751e+01 -1.894203596919046362e+01 -7.912193916358930323e+01 1.000705150422081999e+02 7.295035554367206032e+01 5.921373360334223435e+01 5.990293925391306118e+01 6.506847148955898774e+01 6.613013644881456798e+01 8.078786594319153380e+01
4.021550189499020433e+01 1.200294058078325605e+02 7.982053745822261703e+01 -1.983966410374841871e+01 -7.818031311332744338e+01 9.982881728351405570e+01 7.306151718784907700e+01 5.814075925812934997e+01 6.089793151917830727e+01 6.489566357933563268e+01 6.590456527844288814e+01 8.266006205809132723e+01
3.899056006855155943e+01 1.206585052142707610e+02 8.085368144281702030e+01 -2.084924034352960831e+01 -7.776528579939214580e+01 1.017663070022280749e+02 7.292389613962870953e+01 5.711124651934373730e+01 6.103691469774155820e+01 6.585634759153485618e+01 6.684924443867764410e+01 8.553922455957001603e+01
4.054931883028491768e+01 1.235763138168152580e+02 8.262146506207555774e+01 -2.121931557198956142e+01 -8.050991256086440728e+01 1.027728907742892801e+02 7.311208949899159393e+01 5.692364268804628580e+01 6.095689138830085341e+01 6.755117434031414803e+01 6.782519569961837647e+01 8.779399489595272144e+01
4.426484207821096106e+01 1.264599853372729257e+02 8.410009029631012822e+01 -1.845397145696423635e+01 -8.424467965632854316e+01 1.055235267044940741e+02 7.213983194183751380e+01 5.779463968354833980e+01 6.176547864846418889e+01 7.063837773154855881e+01 6.961280227068370152e+01 9.034339699043052008e+01
5.008430715463289573e+01 1.311300924656402174e+02 8.304358417984695961e+01 -1.628855018354869699e+01 -9.012573379691249897e+01 1.077488725180925115e+02 7.046438293873895020e+01 5.964758590329266497e+01 6.367834387622377079e+01 7.338848771490009426e+01 7.252762930069002323e+01 9.453920855285623759e+01
5.534547281091678883e+01 1.371251146512582295e+02 8.309613626917428064e+01 -1.346255997765917378e+01 -9.526649230505903176e+01 1.104383095068410370e+02 6.733729630673255429e+01 6.178133431475565374e+01 6.574670387638155944e+01 7.756329060896277383e+01 7.558076160819729239e+01 9.749251939494897101e+01
5.945447504271053418e+01 1.423039010209072046e+02 8.202792051635955772e+01 -1.198011670175126930e+01 -1.002869803953970518e+02 1.136239145557245251e+02 6.538192628588329569e+01 6.283002680249314409e+01 6.687062913881101167e+01 7.963790815731456973e+01 7.845994847048440590e+01 1.006108396125529083e+02
6.252742277321320330e+01 1.471691586381466550e+02 8.355376937059628517e+01 -1.129505614274008352e+01 -1.044008985187879830e+02 1.164704441794296343e+02 6.244291500862382094e+01 6.462101420816917141e+01 6.857102175752523010e+01 8.259673731093573679e+01 8.242567267898284911e+01 1.034858934792438419e+02
6.634516631913757578e+01 1.523202226988454129e+02 8.581438202270661009e+01 -1.001650775025327889e+01 -1.084341044422769755e+02 1.196177640532225013e+02 5.954271795308381598e+01 6.677599212516382465e+01 7.084344374284289358e+01 8.463919293258159371e+01 8.554407540329019355e+01 1.058828674309939686e+02
6.966758415204370181e+01 1.563950915663392038e+02 8.683364214916484514e+01 -9.310949726863098519e+00 -1.115397971688235543e+02 1.217476088504835161e+02 5.562000169255167492e+01 6.788248465946089993e+01 7.176646087303200261e+01 8.759018632396303872e+01 8.865384648907355825e+01 1.067436081184805658e+02
7.170017496865538931e+01 1.596805223911667895e+02 8.787435711453694864e+01 -7.938715175308741046e+00 -1.146158934048788893e+02 1.228728611493366856e+02 5.166476898087854863e+01 6.810450987997887751e+01 7.300889579292615394e+01 8.896088201505109794e+01 8.913755448241562362e+01 1.079903457620244325e+02
7.293452106709101201e+01 1.609220279010084482e+02 8.811275366365241268e+01 -8.219117480316667113e+00 -1.159290096887704493e+02 1.238689041096339736e+02 4.754670286805657753e+01 6.714961690301207398e+01 7.216394839993614596e+01 8.906790045953856350e+01 8.896962695065612081e+01 1.079566588706269386e+02
7.372437670594666770e+01 1.610255809597813084e+02 8.711465023532194607e+01 -6.191110769111755729e+00 -1.167948534227530075e+02 1.240250019270596908e+02 4.448087866679873059e+01 6.621177268650235703e+01 7.122324200717135056e+01 8.815638118046604177e+01 8.753880637778286200e+01 1.073713624581290418e+02
7.571465535259545732e+01 1.616650854112435809e+02 8.696540543888188779e+01 -6.016614230704917077e+00 -1.178558691387389814e+02 1.247555597573145576e+02 4.145318326912920526e+01 6.436343197132340777e+01 6.933494661372220946e+01 8.724352492939544845e+01 8.508661664850838235e+01 1.051544071064126769e+02
7.692629170740659106e+01 1.638066910139725678e+02 8.700289031405098683e+01 -5.160488899928287410e+00 -1.188699037054974639e+02 1.252044363335492108e+02 3.853431697559290114e+01 6.229364487190151323e+01 6.733943385026292106e+01 8.526777202582077564e+01 8.433346836849916883e+01 1.043030616783296693e+02
7.703887298525090443e+01 1.640960446298477393e+02 8.704796942993434072e+01 -4.943803126974483320e+00 -1.190667298639841505e+02 1.240571480461947118e+02 3.541590863509773612e+01 6.035499012875192193e+01 6.528408612313113224e+01 8.419753278357548254e+01 8.219979118940892704e+01 1.022004429380061481e+02
7.629416852168725427e+01 1.625492103745040140e+02 8.619001517307341942e+01 -5.010049127474257347e+00 -1.183033586020687693e+02 1.233488830846960838e+02 3.260615402281599273e+01 5.829329388689924230e+01 6.342275939633972826e+01 8.233457070921711818e+01 8.124626827987064814e+01 1.012980406737120092e+02
7.421472698714448768e+01 1.586064406985221922e+02 8.524115687857170087e+01 -5.064691226617466846e+00 -1.154954277108206924e+02 1.205003506343969661e+02 2.927586816266475012e+01 5.638307529284167430e+01 6.046420483102223642e+01 8.042714502778189001e+01 7.930682783989983875e+01 9.849778562048078356e+01
7.460564918400082490e+01 1.554971476058872781e+02 8.195611576270260912e+01 -3.511347572662445238e+00 -1.139638939531663056e+02 1.175543564478481642e+02 2.828410789901065669e+01 5.422776467063237504e+01 5.825618773303772713e+01 7.738367351332870214e+01 7.806640412814893182e+01 9.627239686925388185e+01
7.743314990332750369e+01 1.524483391630581082e+02 7.597100302305162245e+01 2.050097753541966494e-01 -1.140580380286116196e+02 1.137295788757445649e+02 2.549970383780983951e+01 5.322571086696559206e+01 5.710713493074726443e+01 7.618580960509571298e+01 7.801485352238665882e+01 9.436649582473937414e+01
8.130257939289327851e+01 1.496798891447282642e+02 6.941811218819141516e+01 5.882201948247819168e+00 -1.139633390387716076e+02 1.089596359444558260e+02 2.333378692829727186e+01 5.131624796618037010e+01 5.626880748434269464e+01 7.426526787368153748e+01 7.724506570907288960e+01 9.231540061245017625e+01
8.466467031137231913e+01 1.441814628690145810e+02 6.046513923948759839e+01 1.211299207529351030e+01 -1.133850485585887498e+02 1.023566454478062013e+02 2.054249841444910629e+01 5.015546518355849059e+01 5.433177408652851881e+01 7.403088766064770709e+01 7.613400909659166871e+01 9.038305559887530194e+01
8.529920639913403591e+01 1.365782264124887604e+02 5.237825972457316226e+01 1.645590266570203397e+01 -1.098951292976429528e+02 9.361007100946743265e+01 1.824361100584799544e+01 4.840457176590189192e+01 5.238114168654394831e+01 7.169632971959505596e+01 7.451368593621853620e+01 8.761032278312983124e+01
8.183179188707021012e+01 1.259995418343130495e+02 4.430077643493147121e+01 1.878471492549792643e+01 -1.033742320051301391e+02 8.450134715533118879e+01 1.641013926664672340e+01 4.702126735466690377e+01 5.027542222235558711e+01 6.915261727216660859e+01 7.146331602126738858e+01 8.371670777370624705e+01
7.760493723220777440e+01 1.148670690695003458e+02 3.722918046151973215e+01 1.978723022824421207e+01 -9.536745998406827596e+01 7.561658223709893889e+01 1.430544864594399179e+01 4.633934593768589139e+01 4.848305956481182477e+01 6.681801087716853260e+01 6.858868228326772964e+01 7.966098463885664671e+01
7.376571624573230679e+01 1.039159835194182193e+02 3.011271662916767156e+01 2.160170248056947173e+01 -8.739365532587147811e+01 6.650077147757396290e+01 1.235386995102639496e+01 4.429441517894671421e+01 4.542794747713363535e+01 6.250268174706489077e+01 6.544473011981274624e+01 7.578566451170117091e+01
6.967263221648944693e+01 9.365484325028607770e+01 2.479075570741483858e+01 2.304375138065075745e+01 -8.012393146410022382e+01 5.831977181583042125e+01 1.104353092266082825e+01 4.242473290906588801e+01 4.342547687564919556e+01 5.964755329708881249e+01 6.264648809386066119e+01 7.084634263661195064e+01
6.507391081001718192e+01 8.453249318536838075e+01 2.054591165530666430e+01 2.218127587931435230e+01 -7.337609610790974557e+01 5.188450346748104636e+01 1.097963225718082647e+01 4.026530272378899156e+01 4.047527907217090615e+01 5.569647773200949104e+01 5.869788378252649608e+01 6.670644015382880809e+01
5.836235545328067786e+01 7.640930462301516002e+01 1.902783093958508687e+01 2.061885625689970425e+01 -6.539710757037893529e+01 4.696000678310824838e+01 1.171276270660352203e+01 3.848920097580146660e+01 3.841862264772344560e+01 5.172471755397266691e+01 5.473386453955659192e+01 6.193254399202102434e+01
4.975088687590145042e+01 6.777041404431487592e+01 1.828216818566788504e+01 1.587695736841396332e+01 -5.751518403063293761e+01 4.177458769356150725e+01 1.296533886115424572e+01 3.552022974463312721e+01 3.482692916298977082e+01 4.775386092644731661e+01 5.072703163708912655e+01 5.763454325003828416e+01
4.048150868050802131e+01 5.775745249316507568e+01 1.709681784227640122e+01 1.243218603279813195e+01 -4.866679227804694108e+01 3.778409861628739463e+01 1.293786048368295916e+01 3.195603995203568815e+01 3.070173372193308481e+01 4.295608121420888637e+01 4.601340231381129797e+01 5.307202224836742488e+01
3.247889860389860672e+01 4.856224444671889273e+01 1.626032497988902037e+01 8.891366655445475331e+00 -3.956333525410703800e+01 3.294042612927545832e+01 1.316733209740854349e+01 2.604274246356201772e+01 2.601584667003558948e+01 3.793214975884931306e+01 4.080129673614743524e+01 4.776686292779534426e+01
2.503965049191464232e+01 4.036945275608172068e+01 1.510027006131903704e+01 5.217085589357220776e+00 -3.206644752622817407e+01 2.789552383832861082e+01 1.135876615641539189e+01 2.087502799824355293e+01 2.084719883076740388e+01 3.213034662320048085e+01 3.606853185407513251e+01 4.305574422134942836e+01
2.060860669142219237e+01 3.389935284810461269e+01 1.430300170541618954e+01 4.336331795826026791e+00 -2.687274353688808048e+01 2.356175932507437665e+01 1.016045844037231483e+01 1.658306875289340709e+01 1.594688380369562353e+01 2.682392232059191173e+01 3.003522203856326200e+01 3.777816491442207791e+01
1.753438778331987180e+01 2.970702484881079286e+01 1.236240548818583385e+01 2.218496708554414720e+00 -2.261459670432219227e+01 2.133872475230479182e+01 8.465258581323725551e+00 1.366086047502983369e+01 1.160664115322084022e+01 2.195250542839785268e+01 2.487346486064262763e+01 3.309500663635343898e+01
1.458631136629768399e+01 2.577924576333143492e+01 1.040049047182484188e+01 2.006135413257827960e+00 -1.960888906112010588e+01 1.875210189689275353e+01 6.347618000574025920e+00 9.680664218777792485e+00 7.890068837353389597e+00 1.764845174975086550e+01 2.066599986357049090e+01 2.770148775748766568e+01
1.152974666501751422e+01 2.108428007256787140e+01 8.339069073883692340e+00 1.207818414783202510e+00 -1.580376439087477181e+01 1.397551511804047131e+01 3.671380510653401430e+00 6.579101535019409752e+00 3.533646059710013887e+00 1.377030394120751033e+01 1.684065563413266275e+01 2.397278102509557840e+01
8.639208466417546362e+00 1.506404336887958451e+01 6.431192117120601459e+00 9.309989773397553403e-01 -1.172161294842702972e+01 9.583260772751756917e+00 1.122333235060434253e+00 3.429620853933936342e+00 1.390337525518736461e+00 1.050924740432038007e+01 1.262904893708663145e+01 1.805003582965978737e+01
4.795859992735564958e+00 9.953646275660048559e+00 4.284849899793210959e+00 3.600397600646248475e-01 -7.804626017282636496e+00 6.635623341562170374e+00 3.760576789577592671e-01 2.172189924891513968e+00 -7.112468320944690392e-01 6.840355508710953103e+00 9.595279417503348895e+00 1.363498783410659954e+01
1.331364564596835276e+00 4.840333040378913765e+00 3.186309073021726057e+00 -1.002873557212241584e+00 -3.670532498135921085e+00 3.430710296509845492e+00 -1.782205467627069106e+00 4.363826365906545157e-01 -1.790877190083141945e+00 4.074661078879068477e+00 6.511547581106871263e+00 1.051269239816230083e+01
8.688213048985085063e-01 2.087566206788042944e+00 2.148626561620830433e+00 -8.975520244471262288e-01 -1.170820365589224421e+00 2.071151966775370834e+00 -2.025036779297902267e+00 -9.625895992031907600e-01 -2.928654109070097711e+00 3.322967836122855179e+00 4.279059773340051720e+00 8.306658527159852312e+00
1.705491685428350612e+00 2.610731592204863283e+00 1.910677116964318856e+00 -1.210450659301771870e+00 -1.537519480423193308e+00 2.569454301631167947e+00 -2.060910634000237440e+00 -1.031175389841835655e+00 -2.282680113739323335e+00 2.705465388793203196e+00 3.820759181432984875e+00 7.114259665076691164e+00
4.284442090963662686e+00 5.992381755547873112e+00 2.718782393949889631e+00 6.485718932466630893e-01 -5.099124595201588228e+00 5.460347262071354457e+00 -1.217732767135193850e+00 -2.771500654118663198e-01 -1.152978616860082628e+00 4.015566351687356317e+00 4.847861987335010170e+00 6.915830330485826849e+00
7.509665279604011978e+00 1.113525967501679048e+01 4.591707199397595751e+00 1.819927315163087478e+00 -9.335576347613598003e+00 7.597450481482027840e+00 -2.442209662284652305e-01 8.665952097520319697e-01 -2.111574114597475904e-01 3.857576127796752186e+00 5.749061357839047481e+00 7.766288965054523707e+00
1.031030861190478021e+01 1.518223188910903332e+01 5.972171785085107487e+00 2.876599333363439648e+00 -1.240805959741236464e+01 1.035933538992872371e+01 1.574330028656716784e+00 1.741317562264764307e+00 7.855805007711129662e-01 4.840881381798850747e+00 6.862955652857240629e+00 8.812467476223424967e+00
1.352966222262533691e+01 1.932413553523097605e+01 5.917490001359325014e+00 2.970926772800801974e+00 -1.543826044393178698e+01 1.277655156265498526e+01 2.970143035777729423e+00 2.890631735002096026e+00 1.885421773765494580e+00 5.774600900412096394e+00 7.732171371876574106e+00 9.842322445843294076e+00
1.561175743249326509e+01 2.172145658103162447e+01 6.810713797950006310e+00 3.783771626889423700e+00 -1.771886119290613948e+01 1.376169906325509729e+01 2.955085968813928599e+00 3.037978219891695808e+00 1.962983009619383878e+00 6.156154780530699533e+00 8.895977024531958932e+00 1.005552905938584374e+01
1.699061349219871531e+01 2.291189080024106062e+01 7.101234423009900709e+00 4.094806614223659658e+00 -1.882475420340068695e+01 1.487922456557124384e+01 3.106822392495455443e+00 2.959851770579907004e+00 2.820882456138913419e+00 5.849424671718011837e+00 9.068417800859768008e+00 1.001204322913415901e+01
1.628463261268010953e+01 2.231740867885513779e+01 6.852609421276961044e+00 3.963613942754749875e+00 -1.919063895622036142e+01 1.503454434539808560e+01 2.159250264512980078e+00 3.084302334466469731e+00 2.387813025045160575e+00 6.156976634504313317e+00 8.226794569692531311e+00 9.280597414309069038e+00
1.451214369226344481e+01 2.115670638619607047e+01 8.491504996256654891e+00 3.390725439105743089e+00 -1.744661621756022996e+01 1.500418367633037064e+01 1.986102037327488690e+00 2.221746715181729392e+00 1.058353765011244008e+00 5.827374271902129088e+00 7.891491406995087665e+00 8.203026375216005306e+00
1.163608787413182277e+01 1.958981646437370472e+01 1.012558019488766270e+01 1.329540407173052996e+00 -1.545090330337662898e+01 1.436262206493922911e+01 1.305563190485730107e+00 1.250516365509002359e+00 3.634692991625265157e-01 6.215286466733837223e+00 7.460075431053838635e+00 6.469157873383506008e+00
8.609958873349757624e+00 1.662388134818603902e+01 8.403905679446118882e+00 1.700477161147539995e-01 -1.266765832689485194e+01 1.237520066949160302e+01 1.646233934932284926e-01 -5.306265020364596685e-01 -1.601662447441818404e+00 5.128773476060757730e+00 5.286232910053045408e+00 5.087289275421957413e+00
5.630523973178544139e+00 1.293804282895439250e+01 7.193729490310629693e+00 -7.687712429542788994e-01 -9.642204260558832729e+00 1.050918068659083282e+01 -1.419031166270000144e+00 -2.605960757990632981e+00 -3.610218506868964727e+00 3.661683825188393193e+00 3.572427566268251198e+00 3.635842326293427185e+00
2.609832589445069573e+00 8.793612231289937853e+00 5.477139136814680676e+00 -1.815505056201259126e+00 -5.918225916717958945e+00 7.641611077541028862e+00 -3.775295259220989408e+00 -4.613323987626206879e+00 -4.863559410480637446e+00 1.108217902303621827e+00 1.199866661565642589e+00 1.188630729302260436e+00
-3.458094078170303454e-01 4.137890092215710247e+00 4.053173150854245677e+00 -2.774288170076468329e+00 -1.771278718223498139e+00 4.620911551436156728e+00 -4.722527562183808314e+00 -5.889857983052014134e+00 -5.822662042605270649e+00 4.507662272230973377e-01 3.340286016129520585e-01 2.780427686561340872e-01
-2.898755030140505173e+00 2.921751295085592837e-01 3.377628419058400500e+00 -3.238035203978440357e+00 1.541606123740442813e+00 2.234033181314142968e+00 -5.345487873419004998e+00 -6.119923384517970355e+00 -5.392090950081763978e+00 -1.177774805062502539e+00 -9.870108900533258733e-01 -2.218029155928456231e-01
-1.557047546263363946e+00 -1.499968584338785549e+00 1.367831679994505611e+00 -1.389308565910683635e+00 2.259805673326528819e+00 1.316805348131736109e+00 -2.603276047049147390e+00 -4.597875484093261633e+00 -4.166431733551283045e+00 3.929109621415599607e-02 -9.199584282019120929e-01 2.489836600790418519e-01
-7.114331570766052604e-02 -1.122705311907031600e+00 1.282287961916922236e-01 -1.989973342516403176e-01 5.188731573355200855e-01 -4.012937514211570300e-02 -4.674304406872852868e-01 -1.066705038561896135e+00 -1.311711232561904028e+00 -2.773114845721046384e-01 -4.917583278946942582e-01 -3.567959597304532493e-01
1.912836464978283635e+00 3.079450031966664003e+00 -6.419775852735869481e-01 1.454164903349985938e+00 -2.352693650745036447e+00 9.373991149139623280e-01 2.967249511684678875e+00 4.718149295045112268e+00 4.226859417140562236e+00 1.083581022357868351e+00 1.147921674571570350e+00 1.738522421817401353e+00
6.587141415026241731e+00 2.436889059815729563e+00 -2.677280195645872052e+00 3.707757894267181609e+00 -4.703356665194472264e+00 1.287715622541770466e-01 7.278137293372338945e+00 1.049567681833104515e+01 9.125797448249000965e+00 1.232415101402511759e+00 1.229126457072959644e+00 3.235126545316852287e+00
7.507367226509325420e+00 5.228681439463551683e+00 -3.647033629233201957e+00 4.707704407612190778e+00 -5.807547076746685022e+00 8.212109800409457261e-01 1.096245085272958342e+01 1.904207003227652351e+01 1.776634458085332469e+01 4.463721732789057484e+00 4.385414025723204823e+00 6.813154343624249876e+00
1.141286582733039801e+01 3.934186027755194992e+00 -5.457493828409004877e+00 6.751627859662757025e+00 -7.301658798547996376e+00 6.551537028021435782e-01 1.592740980933225536e+01 2.692666758280407180e+01 2.358640258877928986e+01 5.792542433573684146e-01 1.393478595194541425e+00 6.492229237998639491e+00
8.381385050795227443e+00 1.364818506404187737e+01 3.921720517713284337e+00 2.833197604893228583e+00 -1.065747574792681540e+01 7.799578992897203911e+00 2.202334759595812486e+01 4.267289259957492931e+01 3.961275234181574234e+01 1.108208869403837227e+01 1.204704004587942023e+01 1.397291664663742772e+01
8.206775844739345738e-01 2.281792588328398708e+01 2.070289535617568077e+01 -9.943194685436260727e+00 -1.227635500255682999e+01 2.213760056554738753e+01 3.091678131911168137e+01 6.577112698183223927e+01 5.929032357883038884e+01 2.723356818770163557e+01 3.019281802458369768e+01 2.958875451449100069e+01
1.634889975942497387e+01 4.722761858724453532e+01 2.970063054563828686e+01 -7.037864619527364418e+00 -3.012643409667041894e+01 3.803266235858625066e+01 3.163477139906705915e+01 8.740893479169785962e+01 8.384448663001627722e+01 5.091467642883917932e+01 5.831162042184107008e+01 5.478697735201565422e+01
4.149629788747945014e+01 7.979973579011266338e+01 3.918227590211198219e+01 1.023857308074348493e+00 -6.102332712228796652e+01 6.024737689018243003e+01 2.904297907420554736e+01 1.192561250546067555e+02 1.109197627693626629e+02 8.257495299758629415e+01 9.205375082339611481e+01 8.994914097205536052e+01
6.768624474029233795e+01 1.081998979970909431e+02 3.918169453839521310e+01 1.353408741165927687e+01 -8.680404671561525731e+01 7.390295919922428425e+01 1.949835403891389873e+01 1.498358030262207308e+02 1.412262833860190767e+02 1.239027743907361412e+02 1.362291660690345907e+02 1.365863713481977015e+02
9.705943583418935816e+01 1.382808557136107481e+02 3.972160179380889389e+01 2.794308641611278787e+01 -1.171855012653026620e+02 8.979125261480641029e+01 4.338545734750510086e+00 1.879448222507057267e+02 1.740919849407384845e+02 1.778050781490628935e+02 1.930615541671954816e+02 1.941593558662343355e+02
1.401062195396739867e+02 1.678413311651873983e+02 2.694702550617346404e+01 5.638332157275169720e+01 -1.541188609830417704e+02 9.728390074903173002e+01 -1.429080705249996441e+01 2.087189849471039338e+02 1.947931692666827814e+02 2.277143653394239493e+02 2.462378782333002221e+02 2.609538395936364736e+02
1.925533188046855742e+02 1.949340829571335973e+02 1.316997788232861177e+00 9.642617085167957214e+01 -1.944265585636133267e+02 9.856815124319119548e+01 -3.906449708353034111e+01 2.215805475571506236e+02 2.084707914048679811e+02 2.843575232380846387e+02 3.040207803121809320e+02 3.377800435348590327e+02
2.567596384253609472e+02 2.423453960181118987e+02 -1.551352205932358252e+01 1.342008076151302305e+02 -2.497497993118067825e+02 1.140052933871901217e+02 -6.122901683083207303e+01 2.428582893630185140e+02 2.258241875840587909e+02 3.480732132979262019e+02 3.715514747148399124e+02 4.250856447832636036e+02
3.345036008317639471e+02 2.988946065833865191e+02 -3.567378969518748733e+01 1.861028217729141545e+02 -3.152656316219857331e+02 1.318455425516353614e+02 -8.548384396324740919e+01 2.650502318997036468e+02 2.424229725558617474e+02 4.180949973526077201e+02 4.467758582380054122e+02 5.266283539092138426e+02
4.003825738183563772e+02 3.714371774206039163e+02 -2.985888093126996168e+01 2.132857462036190839e+02 -3.864936910878029153e+02 1.725274343023064318e+02 -1.041533949051368353e+02 2.872291181508197155e+02 2.607696269939107196e+02 5.019250230785493159e+02 5.308543924980273232e+02 6.346817808414406272e+02
4.713915086902808866e+02 4.650271353969058055e+02 -5.827307569064175574e+00 2.375464998737960514e+02 -4.672661127201764089e+02 2.284222868823955537e+02 -1.251645593809659545e+02 3.117166100047043642e+02 2.809586725772805949e+02 5.966664322803027289e+02 6.258867676937741180e+02 7.565549462220457144e+02
5.216452103479717834e+02 5.464491849821058622e+02 2.471254167237315968e+01 2.499489868264408301e+02 -5.353005669674940918e+02 2.863821947161537764e+02 -1.382418561162169510e+02 3.242214993565754071e+02 2.921354460876911503e+02 6.767021593642056132e+02 7.047259162243963146e+02 8.748615549479762876e+02
5.717469812352828740e+02 6.521614403801706885e+02 7.742948901070914758e+01 2.455841936828778103e+02 -6.130485914397029319e+02 3.656056652446482076e+02 -1.506632968387039284e+02 3.310357707311071636e+02 3.022731793202408994e+02 7.704670484011849112e+02 7.977970052479784044e+02 1.006033601740757490e+03
5.947403584527756948e+02 6.862133660143102816e+02 8.985084365974307730e+01 2.513187596351461650e+02 -6.388785138351435080e+02 3.898203572953707976e+02 -1.571671887961593939e+02 3.221231578375183062e+02 2.919994150104077448e+02 8.144907204720813070e+02 8.310612040718283424e+02 1.050368794558898799e+03
5.990244571861442182e+02 6.930132240436231541e+02 9.413606468837954822e+01 2.527639138468304907e+02 -6.471694208168310070e+02 3.928705722278642725e+02 -1.597105950907942429e+02 3.048554849573590104e+02 2.762371369121628959e+02 8.474759560995473748e+02 8.520488639710969210e+02 1.065852244227496385e+03
5.777464130933300339e+02 6.874977046995859382e+02 1.087545783530031400e+02 2.328176105994021157e+02 -6.317279440777874697e+02 3.985853657384556072e+02 -1.501003070616162347e+02 2.640001513028619229e+02 2.400469410891547000e+02 8.108351613711084838e+02 8.078018863528583324e+02 1.013422318416257895e+03
5.304087274254612794e+02 6.512041767280979911e+02 1.206426326230936183e+02 2.033406034123600818e+02 -5.914527259089690006e+02 3.864395786475011505e+02 -1.340645184453441061e+02 2.027478510532887981e+02 1.864416260126176610e+02 7.294246203231332402e+02 7.123360330997469418e+02 8.981961177598491304e+02
4.641926605820697205e+02 6.146265190796965499e+02 1.509306266599212734e+02 1.574310481460317988e+02 -5.393929876967961263e+02 3.827621565355235589e+02 -1.214171254264745698e+02 1.332091414910677258e+02 1.235565809852153336e+02 6.327764353031982409e+02 6.081205043849915910e+02 7.873945163007942938e+02
3.700615031572014573e+02 5.502989497896097646e+02 1.820360640243143280e+02 9.368455267238073247e+01 -4.597895534091834406e+02 3.674961741509013677e+02 -1.064909633257499308e+02 3.493117231486384355e+01 3.636260656081685028e+01 4.857491185859691427e+02 4.597054431468750408e+02 6.302295049560166262e+02
2.838299057238042451e+02 4.680702965105403450e+02 1.814222297277434848e+02 5.003808378376952959e+01 -3.765739355042529724e+02 3.240349384123522896e+02 -9.470050768284475851e+01 -4.936639214577197521e+01 -4.485134066078685322e+01 3.525464697865045309e+02 3.204005807593304098e+02 4.840515196189880953e+02
1.894391198769897073e+02 3.560168018201259201e+02 1.668761901712045130e+02 1.241688403886685421e+01 -2.721365566008801125e+02 2.610325340152221543e+02 -8.822672994097112564e+01 -1.509595817364192669e+02 -1.427209208870929729e+02 1.872564593099085641e+02 1.499561926424721321e+02 3.081576167492682430e+02
1.160380610203358316e+02 2.653920218762091281e+02 1.481462625750487803e+02 -1.638820125715875875e+01 -1.896783285875698368e+02 2.070952633056709544e+02 -7.687545943387362968e+01 -2.151724201130097924e+02 -2.078172760207644671e+02 5.869841033258720842e+01 2.707963569599307974e+01 1.690619719621790011e+02
5.083566750335673845e+01 1.825211658170964029e+02 1.316473310763505822e+02 -4.048750083983074433e+01 -1.174776150881979078e+02 1.563012155185749350e+02 -6.722331872282467202e+01 -2.632190954573530348e+02 -2.594570056151662811e+02 -6.187101601773495219e+01 -8.364118225848110910e+01 4.623255632106999258e+01
-1.483827074968020909e+00 1.299458880122209337e+02 1.314056118422514032e+02 -6.653262457991806400e+01 -6.280549041655709175e+01 1.319868231324147700e+02 -5.506182545122680239e+01 -2.964041999666811762e+02 -2.912324021731168386e+02 -1.471531921299518615e+02 -1.620824592184164317e+02 -4.138060848270837511e+01
-4.043958939501003158e+01 1.057103551803115806e+02 1.460545208719165657e+02 -9.299863851418179195e+01 -3.285400890878198510e+01 1.258552975960943172e+02 -4.039062754118624099e+01 -3.038492923522908882e+02 -3.015639457099917990e+02 -1.936025493110067259e+02 -2.014958575249268051e+02 -8.714995986051886234e+01
-6.235769846887730949e+01 9.514059988170481574e+01 1.578816946821152669e+02 -1.114702849126755098e+02 -1.536085625868672722e+01 1.269826653700053214e+02 -3.325106661184314305e+01 -3.005687643930626223e+02 -3.028904129043146440e+02 -2.172052700239707406e+02 -2.224633635649912264e+02 -1.061699798367531571e+02
-6.981536018950257017e+01 1.011976232259382300e+02 1.689337302756359236e+02 -1.198034847568829662e+02 -1.546756780634659911e+01 1.346835843893121876e+02 -2.873036486297242931e+01 -2.785919126971708693e+02 -2.824615285813486594e+02 -2.086443087177325140e+02 -2.064719588356872180e+02 -9.842163530130201821e+01
-6.275214711082242758e+01 1.104290602438502020e+02 1.744466558505956186e+02 -1.187090934867527636e+02 -2.427833515226019756e+01 1.407001997486980258e+02 -2.766789669314858102e+01 -2.461295290310452799e+02 -2.503104442848726308e+02 -1.820731542166484758e+02 -1.756803925713864487e+02 -7.601418457785001692e+01
-4.415487856196144634e+01 1.236783591032134950e+02 1.678483173645907414e+02 -1.074031474472449617e+02 -4.018462376294289840e+01 1.477828501419826637e+02 -2.831693599576813014e+01 -2.014662919519138597e+02 -2.044611700799227947e+02 -1.408686254950242471e+02 -1.295249958368938508e+02 -4.958198024837859919e+01
-3.621209982989541487e+01 1.190447160858249163e+02 1.539795968516985738e+02 -9.636373120913397372e+01 -4.248748555073786548e+01 1.352196246214099915e+02 -2.804469818051252616e+01 -1.608004081109379513e+02 -1.659259292475616405e+02 -1.038530706456021022e+02 -9.046165095948711610e+01 -3.218332013758302423e+01
-2.991023146448897307e+01 9.693839850503985645e+01 1.262175734709927184e+02 -7.790032862733227148e+01 -3.323140940348272210e+01 1.111017202887084494e+02 -3.220047441127199761e+01 -1.214823767054337651e+02 -1.273317268312671473e+02 -7.337849973380924951e+01 -6.546313261688987950e+01 -2.843222741369985584e+01
-2.552771939371855225e+01 8.204241740951874817e+01 1.100016411150067199e+02 -6.733189921070996320e+01 -2.889876215708761720e+01 9.441392570295438702e+01 -2.587332687706539502e+01 -9.783404107875352906e+01 -1.015817049745078009e+02 -5.740244519976074145e+01 -5.375076859071504032e+01 -3.329871136917979157e+01
-2.802205999163329508e+01 6.804997903813699622e+01 9.355289992433405644e+01 -6.244659712431357690e+01 -2.000709396078395486e+01 8.135609809025852712e+01 -1.726936674452826281e+01 -8.145508960707337565e+01 -8.481249000914377234e+01 -5.231033544955671744e+01 -5.389558021662242737e+01 -4.635752566899612503e+01
-2.628358824726327825e+01 5.573979765000683528e+01 8.308207737284433847e+01 -5.587568154907536666e+01 -1.478004387345226789e+01 6.941665388842901052e+01 -1.167433617007129243e+01 -7.529949382943249248e+01 -7.291037570037075000e+01 -5.739051462294020212e+01 -6.001747161686591880e+01 -5.805151498448318392e+01
-2.732472640238030692e+01 4.906521176782372606e+01 7.480388656622670851e+01 -5.097518202774331542e+01 -1.110461455187005164e+01 6.160515890087091861e+01 -7.295591883916340947e+00 -6.886198720736979340e+01 -6.658588047354956529e+01 -6.289734122171937258e+01 -6.522963422223834584e+01 -6.252287157936833495e+01
-2.934142307118390747e+01 4.257681646853264112e+01 7.072697320371719343e+01 -5.196027418623020822e+01 -7.661467819157100401e+00 5.654616502168535419e+01 -4.749121116984350799e+00 -6.111873879471534821e+01 -5.949155554988807637e+01 -6.394118155014297855e+01 -6.063175771322145380e+01 -5.674891239246819197e+01
-3.219889089250059300e+01 4.237085773598312244e+01 7.394405994040214125e+01 -5.188320219419075841e+01 -5.164215408332204049e+00 5.646344376348056215e+01 2.505315606106675475e+00 -4.629476572368394471e+01 -4.849958542864591493e+01 -5.160503949949131197e+01 -4.821008741048655111e+01 -4.435306521239832733e+01
-2.514523188272104193e+01 4.734385498490259181e+01 7.393772469619415233e+01 -5.021631076893800838e+01 -9.390057230014411616e+00 5.894346001334889706e+01 6.915446413242261947e+00 -3.117983180886622208e+01 -3.372488751223918513e+01 -3.343203379853544277e+01 -3.058765503314001322e+01 -2.608581250904763138e+01
-1.063001576839092799e+01 5.740868173232280469e+01 6.688828407858878222e+01 -3.952812530749721986e+01 -2.422790830780551730e+01 6.337501890882438005e+01 1.216366201914352274e+01 -1.358985528924777597e+01 -1.535132461801949688e+01 -1.158168735257052262e+01 -7.896710823328120910e+00 -7.599801415718302700e+00
-1.642367820258538114e+00 5.998616633867693082e+01 6.319746791503946781e+01 -3.263744329623561669e+01 -2.961076858711372140e+01 6.233774976919181654e+01 1.874230980466830943e+01 -1.954226436272386014e-01 -2.333535791429806050e+00 5.721812999083801365e+00 9.980760365195726180e+00 7.027381078644086898e+00
7.631560822465467631e+00 6.052428030993509367e+01 5.392435375045194945e+01 -2.447570020875301466e+01 -3.300523653677319658e+01 5.755392013138480678e+01 2.176272708639593390e+01 7.511259408811405969e+00 6.086237185381258463e+00 1.746062720920896538e+01 2.064134424643633992e+01 1.027688750108590554e+01
9.421105622482103925e+00 5.306951452668570113e+01 4.642326100176555315e+01 -1.728490684332758676e+01 -3.154520261707497397e+01 4.852549064808065538e+01 2.217847190227220366e+01 9.552960025689626988e+00 9.755089763704612338e+00 2.156922921770270563e+01 2.339202080817988616e+01 7.795230241667397308e+00
8.204157963956712152e+00 3.993883796717535262e+01 3.253000455854000705e+01 -1.228100224673094054e+01 -2.368933052457409971e+01 3.773233424303952432e+01 2.066073867673381770e+01 8.876564454959719797e+00 5.902574965581635524e+00 1.396153430541877682e+01 1.363905453314214178e+01 -1.115205624829999520e+00
6.750185806550346612e+00 3.236637683921955499e+01 2.618800448742447529e+01 -8.670265853027402159e+00 -2.032475639395956435e+01 2.954453228750070792e+01 1.799833267111984014e+01 5.099944716654297494e+00 2.409308579073937473e+00 6.536625164864227955e+00 7.774639600643764581e+00 -1.240246373107462574e+01
4.292724862342039316e+00 2.114945645659758000e+01 1.663216244545491307e+01 -6.693837355378468246e+00 -1.218757300539441957e+01 1.946686584002369713e+01 1.429058847387291742e+01 -3.651521261483326342e+00 -2.069235173209114542e+00 -1.070381779459312899e+00 -1.911907523338710391e+00 -2.261065253542330211e+01
3.497067845391819141e+00 2.813586136227569767e+01 2.393176573939609142e+01 -1.102933691346687262e+01 -1.640762477114721918e+01 2.734955479819863911e+01 1.653276878237668868e+01 3.729281744852253500e+00 1.480131987711527763e+00 3.928514206612867099e+00 4.963162984683443746e+00 -1.269226840218167673e+01
7.489372249110310964e-01 3.211316496300236878e+01 3.175979860544400069e+01 -1.584002181587337788e+01 -1.793211343566027338e+01 3.221373673665280535e+01 1.943957711958305268e+01 7.932982651870788438e+00 4.848570883687964184e+00 8.568405876542128041e+00 1.155901903024436095e+01 -5.750330854246102241e+00
-3.539728491011185363e-01 3.074974184779530617e+01 3.087239533712306638e+01 -1.650301781166278658e+01 -1.631447128399579682e+01 3.239499754836006673e+01 1.842392848262345240e+01 9.799865142638513049e+00 6.144833068238359175e+00 1.156588696024477869e+01 1.513139991643197746e+01 -3.916458280383433355e+00
1.273481166028993528e+00 3.521259897831561148e+01 3.349413031318089651e+01 -1.748777577507606296e+01 -1.982286471843250553e+01 3.449312327175242388e+01 2.131073225044304209e+01 1.344139984056019088e+01 9.284202790951088247e+00 1.609764077599385956e+01 2.097190771022363975e+01 1.550624588247011104e+00
5.335708022499056291e+00 3.861951855606575634e+01 3.191234909039095768e+01 -1.480861794395583075e+01 -2.397978220088388923e+01 3.648925162603013916e+01 2.339736909683319865e+01 1.540642052457442368e+01 1.153314404701098894e+01 1.930602735802301950e+01 2.429195694251641413e+01 3.267117502285013408e+00
1.032679899425581915e+01 4.258345697556549680e+01 3.159354209287568338e+01 -1.243308205548960643e+01 -2.717923219181431449e+01 3.776438458818154942e+01 2.550693522533386215e+01 1.693656798306679789e+01 1.277151483522477449e+01 2.026180640549382161e+01 2.587046173787643966e+01 4.487034278130547449e+00
1.227805168015763293e+01 4.419916578048684386e+01 3.054202906136304918e+01 -1.127204027778099693e+01 -3.022912662186650223e+01 3.878188329849238158e+01 2.740285094659467191e+01 1.698550075051187846e+01 1.373969135681920584e+01 1.991003939864717509e+01 2.619642646131353558e+01 3.032546703297283486e+00
1.523402683383678813e+01 4.671316944128865600e+01 3.150038871563418041e+01 -9.711653170277925184e+00 -3.246569954404878899e+01 3.903200372061336054e+01 2.890022479724930804e+01 1.652879519848161394e+01 1.411334746446642541e+01 1.893624500019329204e+01 2.457044199801091366e+01 2.475289489108834395e+00
1.746742441034534821e+01 4.759054249022904770e+01 2.939117456556657970e+01 -7.441587165462671294e+00 -3.449718200185748174e+01 3.907456937785223516e+01 2.957908660006257762e+01 1.439808169351295852e+01 1.391726579296984845e+01 1.618344546363261571e+01 2.326022547670810781e+01 1.648171264225781529e+00
1.942945962880177291e+01 4.888771435603289461e+01 2.777857028835809317e+01 -5.730391928062695150e+00 -3.575956345342349607e+01 3.830646370830254455e+01 3.034287499719236436e+01 1.390119506096208823e+01 1.407805936590221307e+01 1.602844838839551755e+01 2.208535779660170206e+01 2.812840726847188222e+00
2.139974879202898705e+01 4.900156472760152582e+01 2.537733726460259476e+01 -2.848335402330008481e+00 -3.674325349752569991e+01 3.737886674103813078e+01 2.906497093418998645e+01 1.399978276174338987e+01 1.388868119838209303e+01 1.644782943749334336e+01 2.325187400113982150e+01 4.660636437203717009e+00
2.391525391173908588e+01 4.895035529202950642e+01 2.328723508806561071e+01 6.586390538021845431e-02 -3.755676637121195682e+01 3.554648343951559752e+01 2.910440049486761183e+01 1.457975405017059423e+01 1.466240227898679649e+01 1.854323175170581095e+01 2.541827975014752994e+01 9.235210707775181049e+00
2.851066988872858587e+01 4.967243945642255198e+01 1.880180738638665616e+01 3.777668943898620846e+00 -4.004313693692213860e+01 3.423889647885679466e+01 2.883235521782393462e+01 1.581515473027510232e+01 1.575271015587730794e+01 2.022699689990513150e+01 2.811290432432451780e+01 1.127563094183447312e+01
3.253658153701711342e+01 5.010598033364377102e+01 1.667993488287537929e+01 7.433875648507306089e+00 -4.263256850546341070e+01 3.321873433074981108e+01 2.926477727746568647e+01 1.660869244140268464e+01 1.663168122806895965e+01 2.321908813858476606e+01 3.048432118505917288e+01 1.421405213488493402e+01
3.364196544558610924e+01 5.052310603517821619e+01 1.432863051072579275e+01 8.697062148452495478e+00 -4.373617510232487859e+01 3.301599749146499363e+01 2.805653654339281644e+01 1.782628234895001995e+01 1.833191469688553710e+01 2.548846858783522862e+01 3.254028237341907470e+01 1.647335972773986157e+01
3.489169584292523041e+01 5.134312125004568372e+01 1.398267362927706614e+01 9.879142776203625687e+00 -4.416483213613217629e+01 3.232054555250648065e+01 2.872792471676724091e+01 1.852829624151282673e+01 2.052090353460265604e+01 2.683690935729255500e+01 3.305898803561888855e+01 1.789335964079146279e+01
3.440912573216565562e+01 5.013443951709459157e+01 1.393558543726869203e+01 9.339116883946637415e+00 -4.331992438849822236e+01 3.191868479778482737e+01 2.904800640275705703e+01 2.049369050756482480e+01 2.175648335615864326e+01 2.756331302753273960e+01 3.368400894558094905e+01 1.796778568425695610e+01
3.322744975995483685e+01 4.950861104066919438e+01 1.414602457212234299e+01 8.929610508618830877e+00 -4.226491559852060220e+01 3.147473055715303758e+01 2.905393506176686813e+01 2.173443758463630360e+01 2.270818118461217239e+01 2.891363950491587786e+01 3.350655236005912485e+01 1.807365889992358987e+01
3.234199567134616871e+01 4.750818947310416007e+01 1.326626337471855699e+01 8.397555436448607580e+00 -4.135734312115954481e+01 3.016877835214849668e+01 2.836839576746333336e+01 2.275773559911315402e+01 2.316992032007632218e+01 2.888745517760267489e+01 3.272258569995638311e+01 1.786393224801306445e+01
3.167985334832313171e+01 4.619024699769763487e+01 1.242946587037637762e+01 8.272271660939425786e+00 -4.013560498540158505e+01 2.940078041408587239e+01 2.726528315897222754e+01 2.308508105899094787e+01 2.278652598520150008e+01 2.970264792357497541e+01 3.321841935119305589e+01 1.870764959228968394e+01
3.350277288000825848e+01 4.595550715240483441e+01 1.052289380695830090e+01 1.070201297006872565e+01 -4.056857304644879747e+01 2.819209416074498620e+01 2.631332592491013500e+01 2.294402614147206521e+01 2.381981196875743478e+01 3.064655935022503996e+01 3.277506318437277599e+01 1.961241977952063209e+01
3.409663661859670469e+01 4.592111424417512922e+01 9.759521107604106405e+00 1.099982330842334832e+01 -4.176103153906697685e+01 2.784661083362154343e+01 2.529124586902612748e+01 2.305658012250088618e+01 2.395774779803636889e+01 3.180198573147258756e+01 3.374419155026609474e+01 2.138588202227314383e+01
3.460671590702094846e+01 4.723623750536693677e+01 1.069421847517126345e+01 1.110381357954694614e+01 -4.272310765327215165e+01 2.924870904334943944e+01 2.431391291218229611e+01 2.289808828347877778e+01 2.463155030596557538e+01 3.251231678016235804e+01 3.465256056644204818e+01 2.285082438538711358e+01
3.426718805949848701e+01 4.852158651569894943e+01 1.218354770554505073e+01 9.908518075465336139e+00 -4.267754132293501357e+01 3.102118082659717757e+01 2.325071898994283615e+01 2.367447082035196715e+01 2.571494834450500377e+01 3.450906970093349457e+01 3.572930007955542209e+01 2.355404361098714006e+01
2.933946943695774934e+01 4.641536745410282805e+01 1.516567302947305507e+01 6.195965046382816865e+00 -3.986316738824062611e+01 3.080906347068869522e+01 2.288707707637967204e+01 2.418424622208174668e+01 2.670924183670648588e+01 3.563757243584190348e+01 3.669486850074938644e+01 2.490882284453127937e+01
2.575681563260123497e+01 4.538269173540594892e+01 1.747437827405470046e+01 3.305437438235269365e+00 -3.750440289032309948e+01 3.180260275532409153e+01 2.310355577266983573e+01 2.375279609343730414e+01 2.765612185242645182e+01 3.739148552012298410e+01 3.762612358441994331e+01 2.483938499734394867e+01
2.400056060243998246e+01 4.412759743361289821e+01 1.886902356143698611e+01 2.369207955070751659e+00 -3.614428615372199971e+01 3.197046891470291996e+01 2.285609773163703906e+01 2.531942326887988060e+01 2.877033377039000328e+01 3.879528687897760619e+01 3.936136824816408364e+01 2.631139164152722287e+01
2.462267273846209648e+01 4.448284685574950004e+01 1.892862260083166603e+01 1.705357815809692479e+00 -3.647745795479679032e+01 3.261226124964550621e+01 2.367943002354416393e+01 2.739914657071883752e+01 2.953746747581021026e+01 3.964906705282759702e+01 4.083681055836385809e+01 2.786607718975579928e+01
2.622869248600385461e+01 4.690368503223017882e+01 1.968906888903208596e+01 2.873907735751699111e+00 -3.840192963164253825e+01 3.369591738916980717e+01 2.468372544348493136e+01 2.939958728872380078e+01 3.145912629254551263e+01 4.070239119237179892e+01 4.159786208760272785e+01 2.855591221298874061e+01
2.858904158647104765e+01 5.025616087176091895e+01 2.008956351539336183e+01 2.886483818908141430e+00 -4.033801480589893629e+01 3.521476278167606466e+01 2.567798438811043837e+01 3.133591114390100785e+01 3.267787994222992154e+01 4.171327123077856669e+01 4.275563708713499977e+01 2.985974273067389362e+01
2.960990756217055520e+01 5.236363131158488926e+01 2.043036380538435992e+01 3.762557502475397886e+00 -4.247121462648588874e+01 3.757661132310281005e+01 2.719891035470305596e+01 3.349119018024078542e+01 3.431895454230294717e+01 4.260476330419579227e+01 4.365435830710153198e+01 2.996014219473184426e+01
3.087162942683035638e+01 5.441165614556195607e+01 2.247875431744823160e+01 3.538615654858017212e+00 -4.375908671926133309e+01 3.860592393550788159e+01 2.961704297990269907e+01 3.468466804032562578e+01 3.588125922123089850e+01 4.431936939887258831e+01 4.466426939572465216e+01 3.057918210615525112e+01
3.089049439968016486e+01 5.634138483901649863e+01 2.371622989098064593e+01 2.076727517323011973e+00 -4.460725465078369467e+01 4.033744036687649270e+01 3.049878206392607893e+01 3.624171236480512448e+01 3.645175863720317722e+01 4.638889071097137418e+01 4.625254420332683480e+01 3.178884675113657821e+01
3.173654837873611001e+01 5.837325195049744053e+01 2.513726275124299647e+01 2.163789721275759970e+00 -4.627001556333901533e+01 4.232603467690226751e+01 3.301007764055803051e+01 3.850660732160945798e+01 3.897337618845873664e+01 4.838568929292529930e+01 4.845514657351477439e+01 3.252706744624462942e+01
3.202079814918776179e+01 6.084930212245391346e+01 2.816971532232442854e+01 6.894011673063318302e-01 -4.847429412136030891e+01 4.495496639189002508e+01 3.549946186219555955e+01 3.973163868222544437e+01 4.164645082334912018e+01 5.032310217286081411e+01 5.030857527022914866e+01 3.442382490025694608e+01
3.252031095464897703e+01 6.475158568278904170e+01 3.032238709633980278e+01 -3.463787947392123479e-01 -5.020431009522988575e+01 4.812079838921994934e+01 3.732439595923584363e+01 4.064067694046064361e+01 4.252306478657169464e+01 5.248117558508024416e+01 5.240464066288130596e+01 3.574366325018873169e+01
3.428006275939578984e+01 6.869479635226811354e+01 3.304245120244159040e+01 3.348028064729031694e-01 -5.308181715843679171e+01 5.097281071943113062e+01 3.890551975856575950e+01 4.176894198273205916e+01 4.448294659872232870e+01 5.369687236554815257e+01 5.437957833674281716e+01 3.670468793529406781e+01
3.692318601414702783e+01 7.277915565600460468e+01 3.504475938872995044e+01 -4.933357572976121430e-01 -5.589975715841104176e+01 5.418536570958388410e+01 3.899625658053221144e+01 4.207203373359641319e+01 4.515841074870751726e+01 5.476159555011708591e+01 5.582440635840669785e+01 3.715170772541318911e+01
4.065761761489518733e+01 7.624436658730361671e+01 3.436255351859720264e+01 2.169860295756737223e+00 -5.981262201585939664e+01 5.591608407714277007e+01 3.856835116459666324e+01 4.195702984462430862e+01 4.491866358403154891e+01 5.503814681545810572e+01 5.655629275149239987e+01 3.639270991237688690e+01
4.435285170173207092e+01 7.780495359739283856e+01 3.328438398873958448e+01 3.708161796426372447e+00 -6.256504940428833095e+01 5.595983446196415656e+01 3.650407513389735215e+01 4.203271069224072676e+01 4.504718527819215268e+01 5.506623233031815090e+01 5.783541617843268057e+01 3.518854938853628056e+01
4.569812727915061856e+01 7.866275905813985503e+01 3.239633272834579714e+01 5.343690025596035120e+00 -6.379176822350109433e+01 5.610235254551993478e+01 3.541424599561192110e+01 4.197088365100366758e+01 4.497354241144088860e+01 5.434631988134732694e+01 5.801076839447893008e+01 3.503890142028403432e+01
4.635978277347734888e+01 7.874651321214483346e+01 3.113190606468359434e+01 6.297636758360534159e+00 -6.356079800522281431e+01 5.537217090423057186e+01 3.316653150117977589e+01 4.203019826772190726e+01 4.501142756537129230e+01 5.386068341889728828e+01 5.801331362708029360e+01 3.436166952311952372e+01
4.403159849780807633e+01 7.589402184449456001e+01 3.160875716389124435e+01 5.320536335852663612e+00 -6.167879158744457158e+01 5.431835553267074346e+01 2.984202991687998008e+01 4.196217149328565910e+01 4.500026722360065889e+01 5.408661881514732528e+01 5.797845615163938504e+01 3.384795901995413203e+01
4.159012297241771705e+01 7.360408311491171673e+01 3.213100705246872479e+01 3.817152764035096624e+00 -5.913252830813492267e+01 5.328334135390542059e+01 2.710457414174674540e+01 4.206123290938420922e+01 4.499278697199810040e+01 5.394451747520738394e+01 5.802988229979066404e+01 3.410308993417245205e+01
3.907553530611944126e+01 7.163612730610668677e+01 3.238102795844754667e+01 1.491519442739020818e+00 -5.576610387944491265e+01 5.284915097059003131e+01 2.378965229087653910e+01 4.185130190325808996e+01 4.499183731913687012e+01 5.400954959692421653e+01 5.793907497516862293e+01 3.390308996051762591e+01
3.685185893863974371e+01 7.050191507483789621e+01 3.445818095716013119e+01 2.766911235850673112e-01 -5.456863818196098492e+01 5.359721479587697957e+01 2.213986883968012620e+01 4.315757852408437145e+01 4.544759242347404893e+01 5.445993882644755502e+01 5.852074432840915819e+01 3.449466886986401448e+01
3.818385963050752707e+01 7.352131592432156992e+01 3.572630414647096586e+01 -1.722149872345826171e-01 -5.689027377157329823e+01 5.518166845908829998e+01 2.198269116372904719e+01 4.549217376904368848e+01 4.741222369549044657e+01 5.636438801873559612e+01 6.030530639885344613e+01 3.685723165059320650e+01
4.099733323874531976e+01 7.722881125913477263e+01 3.661193924373618103e+01 6.453214534076280318e-01 -6.004110313303281288e+01 5.801507053540615999e+01 2.196698207269196601e+01 4.714007673722851166e+01 4.916212712623792669e+01 5.826181917382392328e+01 6.234919432172245024e+01 4.006011705674362844e+01
4.350742419663029636e+01 7.986469358482737846e+01 3.778999432859055219e+01 1.704828487263841508e+00 -6.307179820909421863e+01 6.050705794627732104e+01 2.252203008721534161e+01 5.008689294288315352e+01 5.210925035392342863e+01 6.090264694074336660e+01 6.433767862819739491e+01 4.349332925500986846e+01
4.479440346095827152e+01 8.270749608716522516e+01 3.798124206242368217e+01 2.182571761048750947e+00 -6.496754800197241764e+01 6.173947799608347253e+01 2.384274415439377393e+01 5.237485632341031305e+01 5.427467627681418350e+01 6.412502817802899813e+01 6.632112814962974312e+01 4.738812645537080925e+01
4.452389297457554562e+01 8.297083789887919636e+01 3.857100705266514495e+01 1.315757362585326939e+00 -6.489327012611602186e+01 6.208916877272165635e+01 2.395198776317717204e+01 5.435161676298540812e+01 5.701491578812689909e+01 6.637099030085605023e+01 6.835549702483784529e+01 4.903486008154454368e+01
4.362186889755793828e+01 8.349369940644400856e+01 3.968492117962411925e+01 8.165085305293136031e-01 -6.557575229779573078e+01 6.236457593253260967e+01 2.457099791118884724e+01 5.623267856289954381e+01 5.935687487040696908e+01 6.832898235629338046e+01 7.029114901980304353e+01 5.270328996549221756e+01
4.527019308030592271e+01 8.572237031847861033e+01 4.073728801761033935e+01 1.674437557448465341e+00 -6.716755926307800451e+01 6.447398569120223044e+01 2.572534940770941958e+01 5.895513401924586105e+01 6.188207479854168724e+01 7.027761614072910845e+01 7.236840663947040753e+01 5.599673143019099086e+01
4.822269871720726542e+01 9.013591652635099649e+01 4.100752526463375602e+01 2.543549912068691299e+00 -7.034332875575204014e+01 6.602660546145192200e+01 2.659909140442285036e+01 6.191869008933220186e+01 6.496482487533999972e+01 7.283592541040164292e+01 7.464504320431798590e+01 5.952860550972689424e+01
5.406940990880669773e+01 9.598812040695455039e+01 4.158622762175799892e+01 4.764432588120132372e+00 -7.594473206142762933e+01 6.972387785161195950e+01 2.776197884124363569e+01 6.561483642719639420e+01 6.859300365411218081e+01 7.658678653535041292e+01 7.938303494325603538e+01 6.371549695918069034e+01
5.929589218940018469e+01 1.013993762400676530e+02 4.217522156101804853e+01 8.179777555588831461e+00 -8.142137820733584874e+01 7.249068240126844387e+01 2.809008177098172609e+01 6.912097716718318452e+01 7.209390415237506033e+01 8.069061389189862155e+01 8.354397465483857843e+01 6.757506794880393386e+01
6.439955649597901299e+01 1.063049328697995435e+02 4.190708476206378208e+01 1.031887742012069253e+01 -8.627774455494046890e+01 7.424523841184576156e+01 2.751057450948999161e+01 7.192045704456373301e+01 7.542919930265568951e+01 8.456330212303001304e+01 8.885763309552626765e+01 7.173141052516322702e+01
6.830911929778638125e+01 1.103312984439934183e+02 4.197624548448575155e+01 1.194313935270975513e+01 -9.040200953231365588e+01 7.633190047535103417e+01 2.564953067712717072e+01 7.452864442217953922e+01 7.936071961446155854e+01 8.875220216358552250e+01 9.399910808416669283e+01 7.504605804753734333e+01
6.922593853766464633e+01 1.121484988409722092e+02 4.300986780933040876e+01 1.138037525279430540e+01 -9.158848161343821914e+01 7.834584079209946594e+01 2.424622278186051361e+01 7.610796843589150740e+01 8.106324559712120958e+01 9.202119056667405061e+01 9.690449760433028814e+01 7.793299488503684813e+01
6.920874488513196354e+01 1.149318935566838462e+02 4.558004287163527124e+01 1.080526454902928180e+01 -9.321329956549377016e+01 8.018541549885301833e+01 2.339378807781147884e+01 7.858097130727391288e+01 8.416061759776908957e+01 9.453696616874975689e+01 9.953632253116218465e+01 8.061058228905781675e+01
7.206016658027000688e+01 1.184118578697030273e+02 4.660777791208159471e+01 1.161715871345779583e+01 -9.579145915935913536e+01 8.300363057492546659e+01 2.233109691445162781e+01 7.944552581820487092e+01 8.571758004030598954e+01 9.552749435870902062e+01 1.011027850619762205e+02 8.101898290616566101e+01
7.506423480504344070e+01 1.232448357023323950e+02 4.728351028081610963e+01 1.306321131558252979e+01 -9.997152721403286080e+01 8.532034126001775576e+01 2.130331938637312916e+01 8.190755035446915144e+01 8.713655007409531095e+01 9.737371489859582141e+01 1.035513504157166409e+02 8.151147396918736376e+01
8.220639681667792331e+01 1.286958753706044831e+02 4.622798981390386075e+01 1.650761594163730450e+01 -1.065243172282172281e+02 8.787614359803569641e+01 2.088889821590693430e+01 8.445111460148633853e+01 8.942989364970433996e+01 9.862865915831613961e+01 1.045360952984622855e+02 8.276095363422965079e+01
8.869922680728397779e+01 1.352208094783740364e+02 4.592291047808826931e+01 2.025067542173940538e+01 -1.126700553050662279e+02 9.047848706372204219e+01 2.106437798574016540e+01 8.619556832497266896e+01 9.116645229670737649e+01 1.002729637154662186e+02 1.062666040814392261e+02 8.350371162414262471e+01
9.202676130904475826e+01 1.391655056458665172e+02 4.654714680905617996e+01 2.174108596088184342e+01 -1.159488443166161602e+02 9.221105376839695111e+01 2.099020080906470653e+01 8.842593023564988641e+01 9.349009769064134900e+01 1.017579264593039312e+02 1.083237346626192448e+02 8.530028711494080085e+01
9.439741205055283046e+01 1.414038191098997004e+02 4.731630841777523955e+01 2.257618804116231814e+01 -1.186022872868743860e+02 9.392010606255969662e+01 2.053829464352980239e+01 8.969654169328333637e+01 9.458821516919849159e+01 1.026682240558326100e+02 1.098536834886305087e+02 8.683466854026744386e+01
9.584197043271724681e+01 1.422822305488698191e+02 4.618557085046483479e+01 2.377252580481939148e+01 -1.190119533066214075e+02 9.394789350384360205e+01 1.915215646200422128e+01 9.062989819967404515e+01 9.582859100545306319e+01 1.030559967219668351e+02 1.099761226176084108e+02 8.701698126637924702e+01
9.586658679986248899e+01 1.416165979944855451e+02 4.603670317220847608e+01 2.398572797223434705e+01 -1.194803596311187590e+02 9.403369289748992799e+01 1.902760682983489815e+01 9.161917751033355728e+01 9.585233955360567393e+01 1.035142719325450429e+02 1.100873367536539291e+02 8.700545521365889101e+01
9.717363410996038908e+01 1.438546006456615487e+02 4.587415994705284561e+01 2.456498314458580268e+01 -1.212249550998500638e+02 9.438875134141471790e+01 1.893104779423495287e+01 9.312511110181725371e+01 9.720202637133579060e+01 1.042588960776354838e+02 1.094465520618028052e+02 8.698077921509531052e+01
9.884354891638727736e+01 1.463950248247419097e+02 4.662153690419168584e+01 2.520962924176670583e+01 -1.233546026324941920e+02 9.635168767672647050e+01 1.912643337010121769e+01 9.547899060199944188e+01 9.879084975414757253e+01 1.037427151454458993e+02 1.082474049820583843e+02 8.704050901584486155e+01
9.948488230046676506e+01 1.487089119004650399e+02 4.760833046134857227e+01 2.483264374399138319e+01 -1.251643361324633901e+02 9.817102112300837291e+01 1.839322454157651165e+01 9.659736161952530153e+01 9.962285694874681496e+01 1.047430096876545207e+02 1.079446258859997272e+02 8.690144887305164900e+01
1.011755649366017593e+02 1.520859327607772116e+02 4.874033769370981162e+01 2.514120891029872240e+01 -1.278759927513866614e+02 1.004742282976697538e+02 1.736723653778629739e+01 9.779230631093041382e+01 1.001115018546361455e+02 1.050666335766156578e+02 1.079785700995917779e+02 8.759378649982517118e+01
1.038661833963894168e+02 1.547449037601826944e+02 4.903812254241049118e+01 2.523810666513667300e+01 -1.309276232221704959e+02 1.015194714191461571e+02 1.630802811608334224e+01 9.790951320749931597e+01 1.004014346740851806e+02 1.049211818969546925e+02 1.085081698780375206e+02 8.857287607957867692e+01
1.068694735524568813e+02 1.585003538671247725e+02 4.939566954438132740e+01 2.761463900351973066e+01 -1.339032741497405254e+02 1.037246499544685321e+02 1.584076496756700791e+01 9.906723480607099930e+01 1.018401434212035497e+02 1.055144278119722543e+02 1.096998222379713752e+02 9.060806758169076147e+01
1.104506101201549342e+02 1.630101591626196580e+02 5.138373304378046669e+01 2.783748625051457992e+01 -1.372803533994719771e+02 1.070330376090677191e+02 1.659419168949051482e+01 1.014034091235303237e+02 1.023979141902337915e+02 1.071368175654694710e+02 1.110126955226663057e+02 9.459321714355743893e+01
1.148892345831338844e+02 1.687598998302172788e+02 5.225544503789923567e+01 2.960948348980472744e+01 -1.427243092578266328e+02 1.097882973671429454e+02 1.765043183083560407e+01 1.031683832460631152e+02 1.043738766379576361e+02 1.098774592576652651e+02 1.139293749278998149e+02 9.888293860013875758e+01
1.219318779899586360e+02 1.749328500937992601e+02 5.137523271320986851e+01 3.347835129707117829e+01 -1.488158421733357955e+02 1.130912753543993574e+02 1.865778175660765115e+01 1.053656152145953655e+02 1.056782632798641117e+02 1.128415794173567406e+02 1.172940740044508914e+02 1.049646357608603466e+02
1.292144157475663349e+02 1.797712036152213955e+02 4.996881230683818842e+01 3.810765483251908137e+01 -1.548869124222844960e+02 1.148373054185381363e+02 1.919252271311401614e+01 1.071569272964207755e+02 1.066267260530833312e+02 1.164766581648025863e+02 1.218309554253085167e+02 1.101218359378536320e+02
1.340791600785765354e+02 1.829815417785036118e+02 4.699829366898158156e+01 4.277068766329235672e+01 -1.598432633501446105e+02 1.150314255191480441e+02 1.837906612576786713e+01 1.094326754955715586e+02 1.076278395843263382e+02 1.201221572525470691e+02 1.246918331435142164e+02 1.153443244075537280e+02
1.384317436733797138e+02 1.849287222942980975e+02 4.509368247108569250e+01 4.551734095174369088e+01 -1.624391097381307816e+02 1.149768071618554330e+02 1.738048244870473624e+01 1.105820121953901634e+02 1.086368664098224457e+02 1.222637540251505044e+02 1.286906284498716957e+02 1.190439989831743475e+02
1.390987273479604482e+02 1.849839934491557756e+02 4.505963428628235334e+01 4.611390022557072399e+01 -1.632538717273476436e+02 1.150262303738427931e+02 1.634812341560854421e+01 1.121975350444902659e+02 1.096274609469095083e+02 1.242744133895337626e+02 1.313945010825227371e+02 1.214599314619044463e+02
1.385110057041865730e+02 1.845781205984899600e+02 4.486131440849436558e+01 4.598683309107099149e+01 -1.623393217874185268e+02 1.149669542312496588e+02 1.542203634942486623e+01 1.138731165751717640e+02 1.106180467863646157e+02 1.258991175781388421e+02 1.328618258750586563e+02 1.221259861581908410e+02
1.372536551313231996e+02 1.831571944615221241e+02 4.565538027485081329e+01 4.554820608448871866e+01 -1.614321085074086568e+02 1.150435945193654703e+02 1.392885960922390254e+01 1.139584947742874448e+02 1.116817538231720590e+02 1.254418965329858651e+02 1.324518631074818416e+02 1.219968523683546664e+02
1.364581515076686742e+02 1.830241387584942174e+02 4.608951884594948467e+01 4.419834412415342229e+01 -1.602679756540879339e+02 1.149395695145451270e+02 1.109339212067014557e+01 1.141079602177494792e+02 1.121245444668240339e+02 1.244425047462981553e+02 1.314402231805403858e+02 1.215160895192354076e+02
1.357075476841996249e+02 1.829604989965460788e+02 4.599598704843937469e+01 4.397902375475556624e+01 -1.599243322802936120e+02 1.150913028489424761e+02 8.636506771563000839e+00 1.134287830970655762e+02 1.118903237898899761e+02 1.227569144854803653e+02 1.297661538784913375e+02 1.202868193557577854e+02
1.363735090616073080e+02 1.830238191496397064e+02 4.587287361183971512e+01 4.402519749577663788e+01 -1.600829633836031860e+02 1.148320471934464990e+02 6.795292154337338353e+00 1.123724857062725135e+02 1.121571306884547568e+02 1.213091546008161572e+02 1.282588087958648089e+02 1.194359792023132911e+02
1.346768930124830206e+02 1.830392383212102345e+02 4.708720713979527517e+01 4.358969670231635263e+01 -1.594890852059380961e+02 1.156908624238016472e+02 5.126311747767968718e+00 1.113220072997678187e+02 1.113557050796832186e+02 1.198972072286897372e+02 1.273863976995639149e+02 1.183446746821124123e+02
1.333919913627723872e+02 1.824570912689729596e+02 4.887502078366269842e+01 4.170998397056499130e+01 -1.582764910659689974e+02 1.160065628188336433e+02 5.044143463644005898e+00 1.108868962310021118e+02 1.108683928999845847e+02 1.180868593516533593e+02 1.268481320711405544e+02 1.173581544514148760e+02
1.318611612635837673e+02 1.818164185249293894e+02 4.944311382297924240e+01 4.024684433105247905e+01 -1.575140513129121018e+02 1.165272950295714054e+02 4.926709547989064575e+00 1.110816395707697524e+02 1.111290089748031704e+02 1.180424445659462975e+02 1.270993986172481556e+02 1.168476980959601121e+02
1.300119010437673523e+02 1.817225465106431557e+02 5.042976441178672786e+01 3.986560288567542898e+01 -1.561316886935139223e+02 1.172536555499063127e+02 5.098748362090185893e+00 1.109167504753340978e+02 1.104563667329760932e+02 1.179797291440943070e+02 1.269262893602528237e+02 1.171300795670182993e+02
1.310799143624502676e+02 1.800078090405654905e+02 4.868958738955996068e+01 4.058883560065360996e+01 -1.565975438427770143e+02 1.163650330184424035e+02 4.842012865651535769e+00 1.111287082374628170e+02 1.092831057781233426e+02 1.179435289490456853e+02 1.270553849364462593e+02 1.168306463084411888e+02
1.325459247231067934e+02 1.802931476273237479e+02 4.730202021141157331e+01 4.122588463783849022e+01 -1.567405110760298896e+02 1.154017365198415632e+02 5.621668712332949625e+00 1.104059433284092933e+02 1.089295747004811687e+02 1.185699534253001133e+02 1.269649692109823178e+02 1.176378979456091685e+02
1.305872123482073448e+02 1.787477965775611040e+02 4.681174525836735967e+01 4.036702024134530831e+01 -1.546338596562519285e+02 1.143851283776421610e+02 6.520722672963868760e+00 1.097732352154194757e+02 1.089926566787257229e+02 1.191334050443846024e+02 1.269883117724203885e+02 1.181521019046558933e+02
1.295067440719546425e+02 1.773160818466154751e+02 4.761289591944197497e+01 3.944126195482731134e+01 -1.533479934795025770e+02 1.133331472211451398e+02 8.172632367398845687e+00 1.106714785514247694e+02 1.094766521136681945e+02 1.193491634609801224e+02 1.274401509533974917e+02 1.178106373259082460e+02
1.276936375379102344e+02 1.763705019571592629e+02 4.857809436431377037e+01 3.827313939627148898e+01 -1.523756410361553719e+02 1.128830709464285462e+02 1.021680652812280599e+01 1.110926864037253381e+02 1.103423067723176558e+02 1.208634442926949220e+02 1.288002658162837406e+02 1.187140972366079978e+02
1.267671072317673833e+02 1.757976980418276867e+02 4.968375112828249485e+01 3.795254598228901699e+01 -1.517709249753087590e+02 1.130800650991032938e+02 1.232675976975400367e+01 1.109730096782717936e+02 1.092284946680246520e+02 1.209514574718299400e+02 1.289909501302740296e+02 1.185949871133987585e+02
1.271971645793283443e+02 1.766713050103408307e+02 5.015866227413575729e+01 3.799056876729764554e+01 -1.527132012109165373e+02 1.129286750804504038e+02 1.328861713312318393e+01 1.106378763438398494e+02 1.086582787556514091e+02 1.210807160342329638e+02 1.290728764450116159e+02 1.172998131273849225e+02
1.263825343203791505e+02 1.767069889760247179e+02 4.939843728969160708e+01 3.807967784262100963e+01 -1.526525723602149469e+02 1.130931026538419815e+02 1.234217880105739873e+01 1.087170338111921666e+02 1.065817390657290673e+02 1.205860179002614672e+02 1.285230233150423089e+02 1.160527785860784178e+02
1.254929240716170256e+02 1.747379926016085392e+02 4.883532221045571475e+01 3.746070768464623058e+01 -1.508049234059461696e+02 1.125302438541380781e+02 1.146836519129128895e+01 1.069700727271003586e+02 1.055884002648399758e+02 1.183461750659392351e+02 1.268971755691855918e+02 1.131693276559881127e+02
1.234848184350589833e+02 1.724787863776313657e+02 4.913208195293117342e+01 3.642125576681537069e+01 -1.483961956570638563e+02 1.108467704433313941e+02 1.026062063358121712e+01 1.036984300131480410e+02 1.031970424415225125e+02 1.151182741267734997e+02 1.243099893052693830e+02 1.097797659865580897e+02
1.194764041191774027e+02 1.684268600135680742e+02 4.886257253808773982e+01 3.488316960342131523e+01 -1.445354340696560485e+02 1.087707961716789953e+02 9.975310686698559692e+00 9.992288093791889025e+01 1.007710912677251542e+02 1.117954205960502776e+02 1.206503403925338205e+02 1.053844950581839157e+02
1.161077998605817214e+02 1.652267012063270784e+02 4.919075079321018507e+01 3.314676459235968053e+01 -1.410526867504053428e+02 1.067471347005993465e+02 9.936470477702721738e+00 9.747058210754893537e+01 9.822733560920038087e+01 1.073838823507774691e+02 1.165386304889435678e+02 1.018006324122108879e+02
1.132840974884296941e+02 1.616940367264744225e+02 4.834157370844346957e+01 3.265464642606777090e+01 -1.383441027939242929e+02 1.052964558781924751e+02 1.051341250298290042e+01 9.339142516552763595e+01 9.571811497941929758e+01 1.041374239474155416e+02 1.125982921056217805e+02 9.726769146523056975e+01
1.096678046765301247e+02 1.574988215959475895e+02 4.790515200099313375e+01 3.070409243955998946e+01 -1.345959513392025144e+02 1.040920329624139669e+02 1.163106569090292375e+01 9.071168769342071414e+01 9.331993222720630854e+01 1.016658747104420115e+02 1.089451567137048471e+02 9.477861412901663130e+01
1.056349763831950952e+02 1.537955791961160799e+02 4.806585280015882233e+01 2.900534686540733276e+01 -1.307309470351191010e+02 1.011026250575734196e+02 1.264182401037971637e+01 8.838238196408939018e+01 9.057458810057457299e+01 9.984440727115028835e+01 1.068850030248576388e+02 9.271482733981429192e+01
1.004522606167454484e+02 1.481891660895363430e+02 4.789875999371155046e+01 2.577113026490080827e+01 -1.252918669442245374e+02 9.837904413605298259e+01 1.311475098531594519e+01 8.506823796503321944e+01 8.894059834554668953e+01 9.821610592412909568e+01 1.042618521016122202e+02 9.098125909428830482e+01
9.091740359243739533e+01 1.401036475099757581e+02 4.852502540208247694e+01 2.111521274268299564e+01 -1.165470773640079045e+02 9.454652633071259515e+01 1.295369337654505060e+01 8.235329583497552619e+01 8.673818073061094935e+01 9.718389087333117971e+01 1.011943357666865637e+02 8.812843802304395524e+01
8.200591036217785756e+01 1.323199636760326996e+02 4.961957472118195511e+01 1.585248365988686636e+01 -1.081237869363158381e+02 9.114188539307770043e+01 1.293979417578746549e+01 7.866428238353093150e+01 8.444551796080607176e+01 9.400705956765447979e+01 9.818957753231262586e+01 8.576400582087418911e+01
7.471509024384415909e+01 1.244384521635302718e+02 5.063838585481382637e+01 1.161457049283623100e+01 -1.006021890688688529e+02 8.818920087710871769e+01 1.390330569142933648e+01 7.454746052748448903e+01 8.096865060959564175e+01 9.185092312265661008e+01 9.526421387825065779e+01 8.377410947104196737e+01
6.865763053294723761e+01 1.193538676289479810e+02 5.111545076372924967e+01 7.830998313616490236e+00 -9.518535068123536291e+01 8.563962014171512749e+01 1.639232189448022581e+01 7.109225940328479965e+01 7.889183072587536572e+01 8.972367626556334130e+01 9.208807333622834790e+01 8.190135268620949205e+01
6.552463344832011671e+01 1.166195088056316678e+02 5.096727749195556356e+01 6.903663426865412234e+00 -9.281906791389734224e+01 8.433046286185150109e+01 1.833479293851010183e+01 6.832105181061707810e+01 7.630697450907906898e+01 8.792070955912072350e+01 8.983059686903621355e+01 7.962955894848754212e+01
6.443722635886484795e+01 1.149843123925091817e+02 5.061404357651566954e+01 6.514365166045192446e+00 -9.069649001579739434e+01 8.353080829366732019e+01 2.271796585337285634e+01 6.510550577771920189e+01 7.314416203234316072e+01 8.568264033104149746e+01 8.728974394332919928e+01 7.849402137063928819e+01
6.338241613997363544e+01 1.126239577763018644e+02 4.920411226985401498e+01 5.828410828888404893e+00 -8.944323169642386517e+01 8.181890333343581290e+01 2.508756449177683123e+01 6.240916950138430508e+01 7.036915546651590603e+01 8.400680622473072390e+01 8.465100926862778863e+01 7.682153528473982362e+01
6.211943075267449643e+01 1.111084758070181238e+02 4.900102359033035526e+01 5.729284627207052338e+00 -8.755006258669355645e+01 8.029910954203600681e+01 2.786694288837688660e+01 5.856977526981308557e+01 6.660392402256267985e+01 8.120088756240541272e+01 8.257373228981211355e+01 7.498203259107228291e+01
5.875343913852375266e+01 1.077199838071484947e+02 4.899120044121081463e+01 3.775029884953732928e+00 -8.361255125655168285e+01 7.910938515701845120e+01 2.977507606116187944e+01 5.521919509818281568e+01 6.319525706990671665e+01 7.834658255904878388e+01 7.852002752310414735e+01 7.178741431826809105e+01
5.428167267451063083e+01 1.033477097584186595e+02 4.895594967270631059e+01 1.529580263411724594e+00 -7.936159311758432011e+01 7.618027178873964544e+01 3.051107203264448486e+01 5.175290319518531845e+01 5.976181790162395657e+01 7.470216829739840136e+01 7.481940629305275081e+01 6.765335682300151632e+01
4.806049653912714348e+01 9.692948902218792284e+01 4.949553370458864521e+01 -2.466031316979410803e+00 -7.300535668089668206e+01 7.331676701276758479e+01 3.160869213533204913e+01 4.799891402210993618e+01 5.601290802834232352e+01 7.063934101739778271e+01 7.040287375773695544e+01 6.319061582259620735e+01
4.076080143838743908e+01 9.034126336055133777e+01 5.023247672712118117e+01 -5.793851284757788100e+00 -6.580613319222716484e+01 7.015922938453033453e+01 3.262305801312803766e+01 4.545846677170864325e+01 5.340478582926217399e+01 6.667007450280834746e+01 6.739644356331648112e+01 5.803058674923400417e+01
3.442719208738235181e+01 8.460283532135093765e+01 4.983519251129770566e+01 -8.767496954557534750e+00 -5.937709553936405626e+01 6.734244723353626227e+01 3.316564831419955084e+01 4.197706384514805933e+01 5.012096352860030635e+01 6.261748511052619648e+01 6.357439926265173114e+01 5.304080277417375555e+01
2.881326140095835697e+01 7.833344002619270441e+01 4.981533360456565163e+01 -1.142201382830108614e+01 -5.390723444386323138e+01 6.414123892183295084e+01 3.248900732475708253e+01 3.999645774163672485e+01 4.734852627813404524e+01 5.910361662007169059e+01 6.028692631952446135e+01 4.855413769754622422e+01
2.555300024797591618e+01 7.346327147498793408e+01 4.759682623080222896e+01 -1.210073200085833101e+01 -5.003325641248731870e+01 6.139252877615386694e+01 3.133988627742008504e+01 3.715354522748669552e+01 4.421273030117074399e+01 5.640873224313577339e+01 5.669264561976605421e+01 4.472752790195802675e+01
2.370931157231811071e+01 6.983710939623234992e+01 4.653536825245348041e+01 -1.235307645181721981e+01 -4.746449675496761955e+01 5.805468414766173169e+01 3.056058319026074699e+01 3.491948633449806749e+01 4.089443553586945512e+01 5.272395452238412616e+01 5.316944522893294334e+01 4.066032130527315047e+01
1.936428020534679106e+01 6.549944933443855177e+01 4.518122595363968941e+01 -1.376544695566277454e+01 -4.365572541671340900e+01 5.589944044706768267e+01 2.882885340923528261e+01 3.185852823019893165e+01 3.650720376822820157e+01 4.865123853025871625e+01 4.989426360537024863e+01 3.666430794990123587e+01
1.686334270924411172e+01 6.224148841355648187e+01 4.515562439752104495e+01 -1.438036969372477181e+01 -4.005970245788980577e+01 5.367360350286780601e+01 2.729504352468861583e+01 2.800249783194252373e+01 3.283261169653394518e+01 4.474754726189888743e+01 4.550294755092711796e+01 3.275801109337559325e+01
1.460880919838583303e+01 5.957638175744212106e+01 4.432386728092289019e+01 -1.586127289094106096e+01 -3.818722634695302531e+01 5.247688984126109091e+01 2.650425943440328425e+01 2.547419228104327260e+01 2.887172551582942504e+01 4.052463419469713557e+01 4.223504277194485468e+01 2.850277307681071903e+01
1.429691019599265900e+01 5.883638235942128603e+01 4.404722415982451622e+01 -1.550284855969352371e+01 -3.796322777870587828e+01 5.120197276817195586e+01 2.532771617058068259e+01 2.204683894689170742e+01 2.711260227363982267e+01 3.771032448169273721e+01 3.930533632897044782e+01 2.571659209498354315e+01
1.575685590502915367e+01 5.951436473381912151e+01 4.343917830360967969e+01 -1.440187773602325727e+01 -3.838265877756929001e+01 5.152279261940595489e+01 2.489040448276490380e+01 1.989576437854672974e+01 2.405393865473030957e+01 3.549055270520996430e+01 3.619355223240523145e+01 2.383142160869256898e+01
1.608908852863239147e+01 6.028195201428795968e+01 4.288410096110115433e+01 -1.374864999270184640e+01 -3.982615543822716120e+01 5.211325638616864353e+01 2.510735839345014497e+01 1.773614578308050227e+01 2.239309120325964386e+01 3.246853911623333744e+01 3.376838728386301369e+01 2.234108517961837492e+01
1.554145788760830271e+01 5.935049143855354714e+01 4.302909970644432036e+01 -1.467732057867752538e+01 -3.954367589050512777e+01 5.203100671439425895e+01 2.482866010860733397e+01 1.635181837688784512e+01 2.094213710656183025e+01 3.158982977759080057e+01 3.187188063127406679e+01 2.134352400704291952e+01
1.432040059465392901e+01 5.855770107315205308e+01 4.305190908334225242e+01 -1.501960910652192105e+01 -3.838962332036301461e+01 5.148384337107210484e+01 2.562547340042053534e+01 1.578623718296010203e+01 1.919068718095591919e+01 3.019779187152251509e+01 3.017353981012280784e+01 2.137582548074180266e+01
1.387268387917568369e+01 5.723282006593817073e+01 4.253628651843138186e+01 -1.508725735220670572e+01 -3.742201579313253745e+01 5.086374523691486615e+01 2.603852889392232939e+01 1.664387802914543357e+01 1.898958238061198500e+01 3.007306241746576347e+01 3.038634912499832197e+01 2.225676975704959659e+01
1.447049763428220004e+01 5.704167156127999050e+01 4.138073189685270847e+01 -1.449001448833673322e+01 -3.677503678090092620e+01 5.070099366875481905e+01 2.639846122725641209e+01 1.701915342386277175e+01 1.900018528991919808e+01 2.982950278440408809e+01 3.177289610891466864e+01 2.214339428933003262e+01
1.568402102667147169e+01 5.688432419251918759e+01 4.045449948917183747e+01 -1.344844646660451737e+01 -3.761970664858802849e+01 4.917247312546785309e+01 2.770900680668766825e+01 1.745104213950633465e+01 1.900012473574956218e+01 3.061213739864824745e+01 3.191002908130215232e+01 2.436458029512055390e+01
1.606515214037495909e+01 5.720327028303509564e+01 3.943830556223405637e+01 -1.233577208565244909e+01 -3.809412835921778395e+01 4.909229493674992995e+01 2.809065184009548943e+01 1.826646779524611119e+01 1.899707267821161949e+01 3.110384665022727191e+01 3.261057801618100171e+01 2.547044090249835691e+01
1.600267718081890322e+01 5.636091671015113036e+01 3.838220850148128704e+01 -1.196018817459056471e+01 -3.798628464783395486e+01 4.851027996584819135e+01 2.786490413497003971e+01 1.772323249071569862e+01 1.901478374068914334e+01 3.090709961222404800e+01 3.267391665318696425e+01 2.706398868087357812e+01
1.564106699358970154e+01 5.565053317123086174e+01 3.784928599373948543e+01 -1.190140887060367625e+01 -3.765321705242860162e+01 4.737060030822900103e+01 2.857548088953790710e+01 1.870134331367030711e+01 1.894087130782357775e+01 3.145206438699387519e+01 3.161474514480980957e+01 2.919291520179617905e+01
1.392998478651325733e+01 5.370038214448597813e+01 3.843968845735691531e+01 -1.287739248036758077e+01 -3.590252713714769328e+01 4.682624656565357668e+01 2.908605522940680999e+01 1.896550310920633464e+01 1.944070162026443427e+01 3.265055928962073040e+01 3.274927704571529574e+01 3.069348728851055697e+01
1.148695457536976150e+01 5.293058044289251285e+01 4.004878227100223853e+01 -1.529231380221147063e+01 -3.381820997395528394e+01 4.752246664997678494e+01 2.933779076361978611e+01 1.946209206607019127e+01 2.064014746073530659e+01 3.347047664245643261e+01 3.294032528513184843e+01 3.145842221867507149e+01
8.112211642755532637e+00 5.254433469518236421e+01 4.214336540936188413e+01 -1.695798893417445541e+01 -3.233322082335395464e+01 4.856175814120094003e+01 3.076436087772558992e+01 2.062317734297633720e+01 2.152005345662935909e+01 3.468203191027917853e+01 3.349407036554310935e+01 3.267872648016187753e+01
6.192376624106330496e+00 5.176649919325838312e+01 4.417135143760831539e+01 -1.934658936076238689e+01 -3.143455410255142723e+01 4.960458746033722122e+01 3.100899007568464683e+01 2.120351415044648746e+01 2.227034146754055044e+01 3.510400588843063474e+01 3.426437202446187058e+01 3.312158232780288358e+01
6.357992591379215241e+00 5.250484934041034535e+01 4.537633810079217511e+01 -2.017817740453933695e+01 -3.118265034924382562e+01 5.014152066481774028e+01 3.100166713991751521e+01 2.041594527596124919e+01 2.137791925300953721e+01 3.455796333524344988e+01 3.337521287420874927e+01 3.252175672903818793e+01
7.721788651096287204e+00 5.367641015748775146e+01 4.425730930327791413e+01 -1.954176263981052841e+01 -3.292623320512122120e+01 4.988601921120071836e+01 3.103932134222161565e+01 1.957894604129946003e+01 2.057949230729904855e+01 3.337144046152960897e+01 3.263735570585544110e+01 3.143915335100195563e+01
8.370050089867502763e+00 5.399036105863427082e+01 4.408656281900179152e+01 -1.830054489183935473e+01 -3.276212104148920190e+01 5.012009377339186500e+01 3.058746693850970644e+01 1.785012435062528269e+01 1.893205170702496076e+01 3.220809199505931986e+01 3.045990532920274063e+01 3.006549643308498432e+01
9.818167039984237121e+00 5.447603561582743481e+01 4.343487414148970771e+01 -1.800675918896794769e+01 -3.371374056742447323e+01 4.985135549912559583e+01 2.934245167956588674e+01 1.641565581779606120e+01 1.686152120545812139e+01 2.917304582381539646e+01 2.762294066928298619e+01 2.775888239610878472e+01
9.817483905541644518e+00 5.520695241920575569e+01 4.293629871725880065e+01 -1.758143453796343536e+01 -3.390623282780499892e+01 5.022515554637003277e+01 2.853744045814064023e+01 1.499845891952306332e+01 1.525192787800821037e+01 2.696470401730099908e+01 2.648544233898079625e+01 2.601270633042128111e+01
1.097240550444992557e+01 5.481941491591892657e+01 4.261738846007678916e+01 -1.636905642986029008e+01 -3.455668301402353393e+01 4.933005544076866755e+01 2.736310799472996891e+01 1.322679948146896045e+01 1.468112710626366280e+01 2.436271532094887604e+01 2.507341294656779951e+01 2.378232912665907861e+01
1.314010417079120785e+01 5.552580364651801403e+01 4.139478857806931700e+01 -1.550489780242642013e+01 -3.541591524434772964e+01 4.904194673478900768e+01 2.653233269354599244e+01 1.260805528196084602e+01 1.279867308241497703e+01 2.175336850379535747e+01 2.265778914992680626e+01 2.201482737841035586e+01
1.483773536282082794e+01 5.629323813477680716e+01 4.008422797756218614e+01 -1.441521769595745717e+01 -3.688546649920315446e+01 4.850633083233588394e+01 2.537123799897058518e+01 1.130649173845635147e+01 1.142296986659749081e+01 1.999448736817891614e+01 2.164108330063875840e+01 1.977702979261984595e+01
1.451792636332965536e+01 5.497837372712286452e+01 3.810439476879181342e+01 -1.344365354864493511e+01 -3.601124731077851493e+01 4.752098999499804677e+01 2.450983261504352839e+01 1.062997830147391731e+01 1.040090065519230755e+01 1.780104035883003277e+01 1.936639114990827082e+01 1.804861595425638043e+01
1.353595823054710223e+01 5.300987394559426491e+01 3.782851881210736167e+01 -1.281646899000105577e+01 -3.440144411571399274e+01 4.597067122515831272e+01 2.369752390667991904e+01 8.894567948826150428e+00 9.571391215408977970e+00 1.632163311305701470e+01 1.725007670978012442e+01 1.570305588878735570e+01
1.192064438224468503e+01 4.998794753169546112e+01 3.562150564528104724e+01 -1.316712585185392115e+01 -3.265164343860577389e+01 4.393294491880277519e+01 2.465822863242468088e+01 7.262509765120685579e+00 8.204841417735243780e+00 1.590553946499063365e+01 1.609320159251505089e+01 1.450370280021490110e+01
1.033220625898348288e+01 4.639608973832262251e+01 3.501746433557043048e+01 -1.278127804038684801e+01 -2.951998868902487061e+01 4.179088100960614582e+01 2.532812006032128593e+01 6.978483326487134875e+00 8.504967407557439074e+00 1.608542294750176538e+01 1.449913619959172273e+01 1.327782384273494642e+01
9.494219120510969390e+00 4.574960214665586733e+01 3.448155098381545969e+01 -1.362682527281895517e+01 -2.856933231681684404e+01 4.045049249441406403e+01 2.720373618554742734e+01 6.948294996296430881e+00 9.082677262742384627e+00 1.586681825089492825e+01 1.573551077769957729e+01 1.336216185235133480e+01
8.486037218954709971e+00 4.371539875358870830e+01 3.386982135618983847e+01 -1.405050199561015312e+01 -2.735595014962108351e+01 3.932453250198453532e+01 2.849385193571512431e+01 7.422680985900789175e+00 9.356562542285796980e+00 1.651271417046992340e+01 1.637113106132188634e+01 1.465692900487660744e+01
7.314668341640035543e+00 4.287541245445248705e+01 3.405568965602954989e+01 -1.401873704035054047e+01 -2.651771766776719730e+01 3.906655444687469014e+01 3.006036538571716576e+01 8.612096338142789520e+00 1.064926416949885102e+01 1.746895616817693764e+01 1.766080783575373303e+01 1.539482911216177818e+01
7.341338296067312363e+00 4.300665078766012073e+01 3.397785445767053858e+01 -1.393273558142938739e+01 -2.573022965149983321e+01 3.840669299554138405e+01 3.166872877183191193e+01 9.489514579576754372e+00 1.146807236292141141e+01 1.903000089016149587e+01 1.877044169167356813e+01 1.708265233824684159e+01
8.632888252483020608e+00 4.333052778774128200e+01 3.400435507490075082e+01 -1.414677100164785273e+01 -2.654510449740202915e+01 3.832957662830062873e+01 3.249172453893613977e+01 1.057494069775193957e+01 1.258677350743849033e+01 2.072167285486518651e+01 2.138752800476668625e+01 1.864981795742788506e+01
9.499346162257298332e+00 4.505308231050084800e+01 3.399071210747534622e+01 -1.343375916344207432e+01 -2.784055419632608164e+01 3.955570448978149756e+01 3.353098844792647526e+01 1.151317965304914992e+01 1.350756341973973917e+01 2.141313417451103973e+01 2.242163949528199396e+01 1.981105207399188828e+01
1.051392893200690004e+01 4.705845465644908643e+01 3.428195213756487902e+01 -1.291373140547300657e+01 -3.032824452517968794e+01 4.099253892529549859e+01 3.461731099944885415e+01 1.254687777711997043e+01 1.454843886007879128e+01 2.263969315175735986e+01 2.369425462636001356e+01 2.233067192642868903e+01
1.168166021307356139e+01 4.913324027204360789e+01 3.617688050882620132e+01 -1.297400521449632826e+01 -3.145048466854706959e+01 4.266265584795722532e+01 3.506814424041328238e+01 1.354231125261395441e+01 1.554321242230916233e+01 2.343429646169484926e+01 2.434717053215823768e+01 2.346940918653535135e+01
1.161737407730789684e+01 5.065172734638597518e+01 3.751268162737010670e+01 -1.341219815869027876e+01 -3.271210829614180682e+01 4.388149370143345607e+01 3.503595112819865420e+01 1.449619868083643404e+01 1.649426842488799494e+01 2.466330791229392005e+01 2.577968672829173613e+01 2.464805318680090451e+01
1.079753412891799336e+01 5.145680586815853275e+01 3.900814584112772820e+01 -1.458010538378228027e+01 -3.297171476218377961e+01 4.582125216507060372e+01 3.457941899608779579e+01 1.564075877853156271e+01 1.764200536907979355e+01 2.507577512366358974e+01 2.591933611904336843e+01 2.537779702607479138e+01
1.077460112226173017e+01 5.259079862739582722e+01 4.069696681053201104e+01 -1.555792634263015195e+01 -3.311500739653993719e+01 4.632218195069824418e+01 3.343574554427704726e+01 1.601459009931021171e+01 1.801691972497770777e+01 2.491270852669645208e+01 2.615220468821041422e+01 2.676486749359483497e+01
9.468940228708401463e+00 5.348514013876760487e+01 4.146868157189933157e+01 -1.613136471531358040e+01 -3.276323089145104461e+01 4.770263635136711855e+01 3.241483730638502436e+01 1.639935979130710919e+01 1.838638555079725379e+01 2.542978841308240234e+01 2.576163068636598297e+01 2.687579581607022661e+01
1.121823083495864815e+01 5.453628056613818131e+01 4.223479435434548890e+01 -1.595635967420787438e+01 -3.395918091325313526e+01 4.837622557160968029e+01 3.194088025852531132e+01 1.754253279218933415e+01 1.959351998648342175e+01 2.658139654342658531e+01 2.665686332528423819e+01 2.757691356045377518e+01
1.243729514952592652e+01 5.584958659058321473e+01 4.176914364429364213e+01 -1.569588453219066260e+01 -3.602978791401393721e+01 4.967456515691869612e+01 3.162868762006546319e+01 1.892335396517627188e+01 2.054235492235725147e+01 2.750906445019677804e+01 2.695849752695432500e+01 2.803257078719073547e+01
1.405875459574173192e+01 5.824907882188980324e+01 4.256821030638309367e+01 -1.425152946647583541e+01 -3.819105408076044483e+01 5.035409258671844412e+01 3.070005874768410692e+01 2.079726655195828044e+01 2.112069164692317358e+01 2.848101926915579440e+01 2.744966041637228571e+01 2.836557323591155466e+01
1.564697787081400548e+01 5.979198039501688555e+01 4.340611457491579728e+01 -1.403220124223092213e+01 -3.947564009925783779e+01 5.201858195828068432e+01 3.129678040397408978e+01 2.129539187540783374e+01 2.124822641375704180e+01 2.995793250104572181e+01 2.853178954039784898e+01 2.966327529152581732e+01
