1.000000000000000000e+02 1.469999999999999716e+02 4.899999999999998579e+01 2.600000000000000355e+01 -1.219999999999999858e+02 9.699999999999995737e+01 -3.000000000000064393e+00 1.799999999999991118e+01 4.299999999999996447e+01 4.999999999999995737e+01 5.399999999999993605e+01 4.300000000000004974e+01
9.603724595517398654e+01 1.430009361106585857e+02 4.896399288434069064e+01 2.403614113508739791e+01 -1.170195149253369920e+02 9.598259042952669517e+01 -2.280448426189935970e-02 1.694457807962563578e+01 4.301454772462422937e+01 5.000398330213305798e+01 5.201181744146104791e+01 3.999489905037784609e+01
9.396257285220130484e+01 1.469840041235673311e+02 5.402548383274498178e+01 2.096819715365142400e+01 -1.179728487006467645e+02 1.000048207478916993e+02 -3.956397227469924172e+00 1.407999806515674912e+01 3.998994153537392293e+01 4.999527642801060523e+01 5.098627558043030916e+01 3.900881545968597663e+01
9.006358938740244469e+01 1.529768383422841396e+02 6.390431730289949286e+01 1.407913541463969231e+01 -1.190219389212987693e+02 1.079428503802845256e+02 -8.026065374766742977e+00 1.192474118738322453e+01 3.901988081211879944e+01 4.901293730230582213e+01 5.201299112827740601e+01 4.097726380461746487e+01
8.696255167761523808e+01 1.629402685524470087e+02 7.898064608156978750e+01 4.992506516631805447e+00 -1.219501994926698103e+02 1.199579725743039802e+02 -9.948439797595728606e+00 1.207764487292583766e+01 3.798335313661725365e+01 4.699690851148292836e+01 5.197808554892341704e+01 4.498913859960298822e+01
8.110727301552358881e+01 1.729574639501727518e+02 9.285532291213614542e+01 -4.878493072022227928e+00 -1.250284112507616925e+02 1.329042058866237142e+02 -1.500529926572911066e+01 1.192818946604291774e+01 3.999358352922209292e+01 5.095170338063746129e+01 5.696904208056617591e+01 5.094317466743380862e+01
7.298339589070302225e+01 1.799506862086011836e+02 1.089617576125446305e+02 -1.599311757804230538e+01 -1.239711082493604266e+02 1.439589221900164944e+02 -1.893420859158848302e+01 9.102738577983032542e+00 4.396810967070583587e+01 6.094272094651897476e+01 6.395026413786253272e+01 5.797859484821459120e+01
6.909446847192172925e+01 1.820343156498344968e+02 1.139503365428180075e+02 -2.091753417258597736e+01 -1.240501272246075217e+02 1.479865787593024038e+02 -2.595355277041690911e+01 5.964098189605366862e+00 4.107665133960644255e+01 6.203120966862655905e+01 6.601204657675327780e+01 5.899933627006424786e+01
6.300337521058634138e+01 1.760455896550229511e+02 1.140417702125565000e+02 -2.501598438091651389e+01 -1.180382287378927657e+02 1.450464156463454231e+02 -3.588319336624116573e+01 -2.831105500007961684e+00 3.501372693774354161e+01 6.000202100733132937e+01 6.697143815042151971e+01 5.801560904217200942e+01
5.809823452149402812e+01 1.740028006804001279e+02 1.159119648998866836e+02 -2.791620520195762722e+01 -1.140423729173443945e+02 1.449581308078365964e+02 -4.101373501303406499e+01 -7.071055960168779464e+00 3.401264167306456443e+01 5.804001784993520374e+01 6.702830648749176135e+01 5.798047730787367016e+01
5.593245712549512660e+01 1.749657309642135203e+02 1.200195728813258853e+02 -3.103248160764125174e+01 -1.139511179351839303e+02 1.469974255785299704e+02 -4.292346682432164329e+01 -1.084311055621427222e+01 3.497619048938508257e+01 5.599700941889674510e+01 6.696387655482290313e+01 5.997720605890727796e+01
6.190758028178732530e+01 1.808774707295955864e+02 1.189929034510608830e+02 -2.804984839593515034e+01 -1.198878792521377932e+02 1.499230959937770820e+02 -4.796303366417310343e+01 -1.408522324771318956e+01 3.306956637438909041e+01 5.794082226125911461e+01 6.899566648054805285e+01 6.294596190993819818e+01
7.670259354976458610e+01 1.918479753141009780e+02 1.161014862269939698e+02 -1.820897839412590002e+01 -1.327790526296480493e+02 1.539866540456906705e+02 -5.288993484971438619e+01 -1.583825657218121385e+01 3.000704061605337358e+01 6.490961147108112073e+01 6.997589687722130236e+01 6.598449738084208605e+01
9.281141570874021340e+01 1.989338183194310261e+02 1.081462561135476932e+02 -6.164164208191991179e+00 -1.448574775194676079e+02 1.530404692264742152e+02 -5.990173722705482362e+01 -2.200425004731184586e+01 2.805598577182730935e+01 6.411089039446068227e+01 7.002188690337651167e+01 6.600414033589410678e+01
1.105972786253703219e+02 2.039013805421215011e+02 9.429192512093464984e+01 9.651651340495458697e+00 -1.557813357485328254e+02 1.481162426928010234e+02 -6.785498878777177367e+01 -2.682434137553955722e+01 2.601791454052805719e+01 5.805982138819777560e+01 6.902579638713622501e+01 6.504335968738762119e+01
1.326533374967740144e+02 2.070168616595928199e+02 7.636362142426156652e+01 2.964574875002302079e+01 -1.678063639383503585e+02 1.401740522512973541e+02 -7.296689072920095498e+01 -3.200794397380692402e+01 2.115831662554936443e+01 5.313646158900086647e+01 6.413293711270912922e+01 6.012540409027671728e+01
1.526485064699785994e+02 2.050149616131645303e+02 5.338669351566142041e+01 5.065086589830473685e+01 -1.778523651751588375e+02 1.291857868884480354e+02 -7.497074979247443594e+01 -3.584933408448309677e+01 1.406487824568719525e+01 4.609179402777635914e+01 5.809446384586573231e+01 5.310688346891608802e+01
1.610145259355716121e+02 2.059745562966153614e+02 4.594064943945144108e+01 5.802160416892058947e+01 -1.809957950289687005e+02 1.249951895090179903e+02 -7.214379989694364781e+01 -3.711449963604913904e+01 1.393370618236547465e+01 4.303581444025429192e+01 5.211855196540491875e+01 5.097834047852067840e+01
1.591098689867165774e+02 2.041435310025299543e+02 4.702268047165782150e+01 5.802082362871497878e+01 -1.801208136808724589e+02 1.240647382826074505e+02 -6.513406285352799330e+01 -3.495425703097104986e+01 1.986987316011741811e+01 4.297149357992898899e+01 4.998992479563735714e+01 5.200659470911655546e+01
1.407150766941591655e+02 1.914133339753611267e+02 5.269770026497156579e+01 4.553900678640371069e+01 -1.635822500256328453e+02 1.210635668384813357e+02 -5.911180033996587468e+01 -3.313707995397943762e+01 2.106140898265084971e+01 4.397928469700685383e+01 4.808971233694673231e+01 5.101828253591452977e+01
1.106022227164105374e+02 1.724286900419938604e+02 6.384628645228183785e+01 2.436846671786369001e+01 -1.394974719220136024e+02 1.171104234150820105e+02 -5.608744139614690738e+01 -3.096027691110869284e+01 1.998314973059726896e+01 4.594722039229368704e+01 4.695233653082582492e+01 5.004185779137121415e+01
8.564721194888220168e+01 1.572990475174513278e+02 7.170040604009660967e+01 8.464089956380083990e+00 -1.194736420812671867e+02 1.149827305857128721e+02 -4.731151646765824381e+01 -2.818698800754846090e+01 1.905440270362755939e+01 4.603303631032472509e+01 4.800658957888922629e+01 4.897511796193920475e+01
6.537272383461501590e+01 1.482076864862346497e+02 8.280593226015872688e+01 -6.735855424670508462e+00 -1.052843630180310868e+02 1.150560989623842545e+02 -3.814754945210265191e+01 -2.402190733974627790e+01 1.989246718291365923e+01 4.691369334459593432e+01 4.987840520950560119e+01 5.097061365763115504e+01
4.952630461720423227e+01 1.373916638238704024e+02 8.788419787691790930e+01 -1.667537545156818624e+01 -9.146450915286095551e+01 1.111335850349932315e+02 -3.124244536390010651e+01 -1.830935127073434288e+01 2.388988321635795131e+01 4.992725283338357656e+01 5.485208561243148040e+01 5.097584401566528101e+01
3.426904537390014838e+01 1.242785442018111723e+02 9.093799328644132629e+01 -2.679676053047754181e+01 -7.824200097189145708e+01 1.070703737281232861e+02 -2.506324682686607019e+01 -1.010008517931412975e+01 2.981313533465446852e+01 5.386535546415043285e+01 6.179904786115702109e+01 5.391232168281334936e+01
2.438362341532439004e+01 1.171883817624661788e+02 9.483781242429218139e+01 -3.377006068746222667e+01 -6.932743003051010078e+01 1.060281293380953684e+02 -2.402740211345113153e+01 -6.147592640198623393e+00 3.205309584634782993e+01 5.601891335899564695e+01 6.406862847729146893e+01 5.405662337246128146e+01
1.413917806501625840e+01 1.102280591506184919e+02 9.707881615584645374e+01 -3.895356325338692471e+01 -6.018112324754312681e+01 1.031449153987281164e+02 -2.398347712159360157e+01 -4.931040488722146620e+00 3.101203689231168426e+01 5.504415327264216273e+01 6.204776978484273542e+01 5.302095163845086745e+01
1.299080492614973359e+01 1.023041835145595968e+02 9.129280345214813508e+01 -3.811708176253458902e+01 -5.516917004240792721e+01 9.726952524315210269e+01 -2.215108455299185408e+01 -4.129014766719015128e+00 2.723270323372516089e+01 5.119276831258869009e+01 5.727214580674391442e+01 5.016294164070342987e+01
1.487808867112341638e+01 9.138272273190167994e+01 7.850909389824721529e+01 -3.035488577903393903e+01 -5.109015473710987720e+01 8.546252851621292734e+01 -1.805766231276567169e+01 -3.837888213524979886e+00 2.116661370568433043e+01 4.614658115355177870e+01 4.923951880309875406e+01 4.516744346410207100e+01
1.790914629239460254e+01 8.221899645651593858e+01 6.630941680097200219e+01 -2.220137566003450402e+01 -4.810320534798174918e+01 7.428689180673006831e+01 -1.979878000673091165e+01 -9.761081362814479689e+00 1.245471539773237346e+01 3.932588137427058683e+01 4.036658330676610973e+01 3.831382673587258836e+01
2.276433295005472246e+01 7.628053392268641630e+01 5.551729749188854157e+01 -1.436705645182131974e+01 -4.700552383642590115e+01 6.539039295514685080e+01 -2.774942516920060243e+01 -1.960989292817020058e+01 1.243172566786592936e+00 3.121590390452230324e+01 3.218500156534481960e+01 2.928364460285184023e+01
2.692226538671017622e+01 6.545706372216793056e+01 4.052652005247595923e+01 -5.296656102875489935e+00 -4.418359093267344662e+01 5.346309724392107654e+01 -2.821545170784934697e+01 -2.497244014779606758e+01 -2.898257650868643065e+00 2.523101376409852392e+01 2.718497788259600156e+01 2.405919779322294616e+01
3.170945199883172450e+01 5.619789095939999157e+01 2.652767112437908992e+01 4.576531645367502676e+00 -4.196390198983496589e+01 4.139682306742621165e+01 -2.307895193745216034e+01 -2.874484845084669260e+01 -4.030219734016164068e+00 2.106212810244588596e+01 2.497546577587304384e+01 2.494930179855077057e+01
3.691164483486444681e+01 5.308350447163505947e+01 1.621957732823243603e+01 1.186923457777458779e+01 -4.204416604962868576e+01 3.509792534020239430e+01 -2.296699704602622916e+01 -3.019693626350093041e+01 -2.131738912671118591e+00 2.002487269697240180e+01 2.502738180441298255e+01 2.408336403647947321e+01
4.075482774113623208e+01 5.196818026591130035e+01 1.307449526487764402e+01 1.580527146925992099e+01 -4.377982238264472414e+01 3.307565127584429376e+01 -2.398718449496559657e+01 -2.694658417167015330e+01 1.896352662542230894e+00 2.091535617466595198e+01 2.592869203927395105e+01 2.304177163590514255e+01
4.403414409712139133e+01 5.482704094802181061e+01 1.290873359445034474e+01 1.711952842680335962e+01 -4.796673746378928627e+01 3.383225378647754411e+01 -2.124364428791150061e+01 -2.896533225226489350e+01 1.078089593998028173e+00 2.199756281987832196e+01 2.421362082556075279e+01 1.924450276185153896e+01
4.299296032655175281e+01 5.704768230136579632e+01 1.591088758596882080e+01 1.498213168420170049e+01 -4.705419174201290389e+01 3.701174166570445578e+01 -1.612804845330331105e+01 -2.993594093635114461e+01 1.960258042824104097e+00 2.117098996707878200e+01 2.103276852477935677e+01 1.512501982697338221e+01
4.389795993924123962e+01 5.325555296802512117e+01 1.250253711988657379e+01 1.774618665547963303e+01 -4.603786702258710051e+01 3.238489659094752682e+01 -1.497785327725594939e+01 -3.092456876634194529e+01 -4.413955353717660124e+00 1.069983101686152871e+01 1.735739894654670579e+01 8.504218750685589967e+00
4.617375805696375579e+01 4.549723204792620379e+01 -6.998362789929587491e-01 2.397054835378454030e+01 -4.336421419540825184e+01 2.239612019749953475e+01 -1.601807722235981402e+01 -3.487126555032408959e+01 -1.478380689016152871e+01 -2.595093148912329450e+00 1.017001886001740729e+01 -1.747693126585874834e+00
2.482453722180588329e+01 3.260341327893645769e+01 9.781561041298999726e+00 8.478175929419137447e+00 -2.617037907311902245e+01 2.069187307073355697e+01 -1.049017435164510026e+01 -2.867945388006781826e+01 -1.698548797631709206e+01 -9.723559147329519092e+00 8.083761875566480626e+00 -2.157177334263407964e+00
-1.350712269639093499e+01 2.234975254005588852e+01 3.588662756280200483e+01 -2.365498709713785530e+01 -2.908167885920465601e+00 2.958274928472986076e+01 -1.271095235244270150e+00 -1.727793089420089956e+01 -1.338291763718001981e+01 -1.212343322623486763e+01 7.860032971515923172e+00 1.801923385414674783e+00
-4.335442746171742812e+01 1.889412338542633307e+01 6.417393278360270870e+01 -5.328814401007390700e+01 1.421181584904347694e+01 4.111178311304159649e+01 2.805227847767437499e+00 -9.617936565848681951e+00 -3.597566947543254567e+00 -4.653785112837044657e+00 1.446833310535438422e+01 7.557842365039538990e+00
-7.319610133348922432e+01 2.468420466854595574e+01 9.804125222194944911e+01 -8.414433946947133336e+01 2.578937469953351780e+01 6.125955330389101761e+01 5.092350418791887101e+00 8.691307903446583438e-01 1.042574509703425001e+01 1.131262760606553819e+01 2.654593680894146956e+01 1.765017261416143057e+01
-6.824753375098943309e+01 2.791624988177158073e+01 9.603120552915046915e+01 -8.111128908428402440e+01 2.166570395107031288e+01 6.254433138664106906e+01 -1.469183908178195441e+00 -5.331397704198385767e+00 9.678554991991761725e+00 1.524412397776401740e+01 2.642103026989415682e+01 1.641551349554332973e+01
-4.117536766236753465e+01 3.085622317413088211e+01 7.400113708632194687e+01 -5.612715730575214934e+01 5.722195146810282296e+00 5.235686340154816065e+01 -1.156544338864874710e+01 -1.845445719883368696e+01 -2.637913460177778280e+00 1.200450148387519178e+01 2.013274041243024470e+01 1.014838778633984084e+01
-2.917905455378862456e+01 2.931471256556143601e+01 5.960107215526381452e+01 -4.333360752279386219e+01 8.440113554600645607e-01 4.551191329403744845e+01 -1.685856760174646141e+01 -2.391414507137947609e+01 -6.838620085689458783e+00 1.023210239682540390e+01 1.634665270040661866e+01 7.211189378974949271e+00
-2.620961931372099940e+01 2.329197240979497963e+01 4.946043651820523479e+01 -3.642950569980494180e+01 2.999509126369587442e+00 3.542596039551709453e+01 -1.890188407655868730e+01 -2.502014214369808798e+01 -6.269518029671903747e+00 8.822011552757571096e+00 1.286464327776754324e+01 5.839312821762183248e+00
-2.318043097575635869e+01 1.910772547743588134e+01 4.331633419452716538e+01 -3.118793436400754615e+01 3.033247551516603302e+00 3.114559005793278601e+01 -1.998415481252371961e+01 -2.130771581872597054e+01 -2.972644579984127677e+00 1.278350079052060373e+01 1.858367283148472993e+01 1.068592109125981082e+01
-1.567044152368808341e+01 1.905873834224088270e+01 3.380948842547380906e+01 -2.373158551046850206e+01 -6.965512930119821533e-01 2.643578029536589824e+01 -2.002051335063480053e+01 -1.897803034952739409e+01 -3.137320416857074523e+00 1.860564340874126188e+01 2.659002986381263511e+01 1.582357422686992621e+01
-6.345233250080028142e+00 1.264638939309763366e+01 1.888206593364624197e+01 -1.158016473777384192e+01 -1.236481635347970398e+00 1.671511674805840286e+01 -1.906331676840598277e+01 -1.808584437343189677e+01 -9.945886789087059476e-01 1.940133037002223659e+01 2.740293929586094634e+01 1.345590592346051650e+01
2.162745690669701126e+00 3.371120642622679853e+00 2.145854454021291158e+00 5.734636941423130324e-02 -6.963382239429398712e-01 2.860848457005429779e+00 -1.814479643500940398e+01 -1.812566375005351915e+01 -1.112639531517926716e+00 1.315133162620152341e+01 1.940017263379507639e+01 6.319775709297453581e+00
1.804967940889632416e+01 -9.176974101406382145e-01 -1.606526767397749822e+01 1.701511062986319800e+01 -6.649079056296080203e+00 -8.565744873955617678e+00 -1.078237563309197000e+01 -4.578095111039293563e+00 2.653738072738626386e+00 1.032111525452803313e+01 1.248626545869579196e+01 -1.304608594142238287e+00
3.227031584905213890e+01 1.716457014985007579e+00 -2.840374935808251777e+01 3.128464195100733392e+01 -1.443713046094325669e+01 -1.283632718600754252e+01 3.111527132617900815e+00 2.070839754766517871e+01 1.209161080240479613e+01 7.771963679085064136e+00 7.073946434531272587e+00 -1.074604378850461472e+01
3.720655220228010052e+01 1.360545929770848872e+00 -3.486250191410245947e+01 3.706657399884013415e+01 -1.732601975717987841e+01 -1.580181035616049634e+01 2.058302736512670705e+01 4.149299422309328378e+01 2.970699141211413874e+01 1.366009334364670913e+01 6.971949041591487983e+00 -1.197263123346656677e+01
3.225737633029009999e+01 -1.272721344827426826e+00 -3.250817616369813123e+01 3.334797263290568026e+01 -1.296177462297606020e+01 -1.630075284387458723e+01 4.199541187525333186e+01 6.467727532570637550e+01 5.322874209591432049e+01 2.196479054235790329e+01 1.302518985978320920e+01 -8.740756651082353557e+00
2.831099821279647344e+01 7.256871673906690745e+00 -2.006481690855803990e+01 2.566404221760336313e+01 -1.579540039874521895e+01 -5.995509998076022917e+00 4.988188868870607706e+01 8.547614513964732907e+01 8.286856557062063189e+01 4.428148322549414928e+01 3.258077033138038558e+01 1.037743690070981373e+01
2.670522032660643674e+01 2.167706339109368585e+01 -4.047229436997776375e+00 1.734049247079451916e+01 -2.214597934493833620e+01 9.878845351735492386e+00 4.929907401082613916e+01 1.068973463827830415e+02 1.183871967924570754e+02 7.353768530373926637e+01 5.777595568666891523e+01 3.779407589850551119e+01
3.519243466185977098e+01 4.604190231680438217e+01 1.278349107515944461e+01 1.323435339637127406e+01 -3.870417679298480351e+01 2.943422873349766178e+01 3.911388236831451337e+01 1.193581668466721482e+02 1.598756221069887431e+02 1.193183101244499511e+02 9.874109792505704775e+01 7.697002365677892044e+01
5.304388620863647930e+01 7.677479357963898110e+01 2.575310634589330405e+01 1.518557618192478920e+01 -6.188504461613788976e+01 5.084437394321105330e+01 1.879578128584654451e+01 1.233685788567653248e+02 2.086682226859095408e+02 1.750689004701688418e+02 1.501364924416353119e+02 1.226425537671497921e+02
9.071170595385545710e+01 1.078419640714862453e+02 1.915303452799292216e+01 3.677506520274582869e+01 -9.724332369547401811e+01 6.244039211038484183e+01 -1.409149645237418724e+01 1.087042850600942501e+02 2.478773888552212270e+02 2.310841650876628819e+02 2.061460900720037159e+02 1.758530985012777421e+02
1.427672432461730523e+02 1.420315308355127115e+02 3.034814455247418774e-01 7.315922311642705722e+01 -1.403802927391585627e+02 7.115953467911016617e+01 -6.189737976024129296e+01 7.779110119200412043e+01 2.776820406363423785e+02 2.876525315307345068e+02 2.623947726905823288e+02 2.372680697458362431e+02
2.061290288378048388e+02 1.908550418533721142e+02 -1.335593225546372231e+01 1.113338994361894692e+02 -1.965525966406450777e+02 8.825370830648080300e+01 -1.293032150312087083e+02 3.278579572893678318e+01 3.089605089348476668e+02 3.537509415820899790e+02 3.377581160255345480e+02 3.109103279351334095e+02
2.737525492934281601e+02 2.528579573609575561e+02 -1.974886786294317886e+01 1.481837548526606838e+02 -2.607495882930555240e+02 1.165479427587587509e+02 -2.098671675788684752e+02 -2.274911109313349655e+01 3.357931834390109316e+02 4.273318057825536016e+02 4.243893430722911262e+02 3.982425065586689925e+02
3.506564874136223580e+02 3.312717906699668902e+02 -1.850201438119999153e+01 1.861305644920311408e+02 -3.394720669766122114e+02 1.554812205249303076e+02 -2.977703781504525296e+02 -7.627630332724072559e+01 3.742764780530258122e+02 5.109148703152266648e+02 5.226621468351445401e+02 4.959142954145312956e+02
4.331662741729084587e+02 4.214059184908127804e+02 -9.782876067797449338e+00 2.233702667880880313e+02 -4.248201194136072445e+02 2.043133614822136792e+02 -3.947238496253125959e+02 -1.267939735001838386e+02 4.238038686728958169e+02 6.060659733071903474e+02 6.322308632198688656e+02 6.024009563618191123e+02
5.036985779526299325e+02 5.044280156689861201e+02 2.786139788030991493e+00 2.521392507442147632e+02 -5.020477112451205244e+02 2.520960547714380766e+02 -4.893912164128555560e+02 -1.852206435856159601e+02 4.558951484148926738e+02 6.922487301708811174e+02 7.284500416429469851e+02 6.957780549652800346e+02
5.678385528939278402e+02 5.841473621595300756e+02 1.645007124806994625e+01 2.760934299723036816e+02 -5.734946720143947232e+02 2.992495370023948453e+02 -5.851218355021064781e+02 -2.479223854885899243e+02 4.800832627184176999e+02 7.748152640663612374e+02 8.194603541170207563e+02 7.826856734991305302e+02
6.042244801758243966e+02 6.165740447142601397e+02 1.316137211631285986e+01 2.975199061872378365e+02 -6.088448278188510585e+02 3.143306177716025900e+02 -6.606836054220348160e+02 -3.119027222526831338e+02 4.702992301505374826e+02 8.146390230558464509e+02 8.606839312481339448e+02 8.218513224030845095e+02
6.228922608507161840e+02 6.156302377249537585e+02 -6.121933499042955695e+00 3.155782156467071218e+02 -6.168766016709206497e+02 3.043205861961588994e+02 -7.225218113389207701e+02 -3.764675878395228779e+02 4.367454324581788114e+02 8.219871677518584647e+02 8.678636001582999597e+02 8.277392490672798431e+02
6.273784010554436463e+02 5.924497560660561248e+02 -3.405840032958857932e+01 3.316692364719154398e+02 -6.077616482265492550e+02 2.772981701987824863e+02 -7.704760863101206496e+02 -4.486698803206196544e+02 3.626748741427939535e+02 7.750157554151339809e+02 8.269967196972942247e+02 7.914776802631795363e+02
6.178026479913809226e+02 5.476206816640237776e+02 -6.904926341004782842e+01 3.457631584645045564e+02 -5.817335327077463489e+02 2.376469314887422968e+02 -8.086795442455729699e+02 -5.247704957924205473e+02 2.525039848446363351e+02 6.797609437823157350e+02 7.456986458375282609e+02 7.160688069399977849e+02
5.722803993468954786e+02 5.023722279890826599e+02 -6.905671286183418545e+01 3.233415488560000313e+02 -5.354113325689978637e+02 2.161599992847328622e+02 -8.204201343625098843e+02 -6.002277724337178597e+02 1.205471676324110604e+02 5.517159836373577946e+02 6.287239453806247411e+02 6.121064045657516317e+02
4.902840960431914255e+02 4.478589976266574695e+02 -4.122931301021260708e+01 2.667420104102113214e+02 -4.669988163755819528e+02 2.023476201238411818e+02 -8.071059030765718489e+02 -6.758627874942968674e+02 -3.876864691912848571e+01 3.830505841876567956e+02 4.737709542042231305e+02 4.762635298551156779e+02
4.023368830008294594e+02 3.885760311769187183e+02 -1.388638193959528166e+01 2.096532538564372317e+02 -3.939880617253319883e+02 1.863327274177644028e+02 -7.687175123998752042e+02 -7.101925943461909583e+02 -1.622227733670483190e+02 2.251140335308232068e+02 3.307058174367009542e+02 3.509745018042388551e+02
3.069232747672062374e+02 3.245982244331135576e+02 1.877236228894578218e+01 1.450134964719759125e+02 -3.137371097383951337e+02 1.706981920421222583e+02 -7.088152170714267868e+02 -7.115996982211037221e+02 -2.663035706481159082e+02 6.577506457940805262e+01 1.876268620914039502e+02 2.280297289029858803e+02
2.264459922886908885e+02 2.599969162221477745e+02 3.345119203650153139e+01 9.851470084815774442e+01 -2.421639082147449074e+02 1.456820036055784442e+02 -6.362741229366512243e+02 -6.913252003851456493e+02 -3.311450936107912071e+02 -5.431607568245497220e+01 7.292330423094148273e+01 1.263233305629779437e+02
1.604305046600345293e+02 1.985665344342853871e+02 4.008844593112446120e+01 6.117502605366051682e+01 -1.780649195243991869e+02 1.196476866526361249e+02 -5.535876384199111726e+02 -6.476066482151222772e+02 -3.632323545150778159e+02 -1.395047229411549949e+02 -1.622331677251887427e+01 4.058922544739949245e+01
1.070617076488985333e+02 1.603421888075378376e+02 5.429381442209096065e+01 2.877249256530591026e+01 -1.321883281346334797e+02 1.084271984935312361e+02 -4.673918670018414332e+02 -5.844373132537654101e+02 -3.682790559514921824e+02 -1.955459632752569235e+02 -7.437260284158851675e+01 -1.382154340851092655e+01
7.103853749172921539e+01 1.429589170029611012e+02 7.473756928768827379e+01 -1.742616812043333574e-01 -1.050596037271121617e+02 1.084083728555487909e+02 -3.770772938783363202e+02 -4.981658957522766968e+02 -3.392885568960065825e+02 -2.177365214292110238e+02 -9.932008472206815952e+01 -3.699594515466611000e+01
2.907461812510829802e+01 1.346016623314463914e+02 1.077721429752232609e+02 -3.839345899940904872e+01 -7.981282989357148949e+01 1.211314015619229991e+02 -2.945175928518510773e+02 -4.082095855481521767e+02 -2.801660327026907567e+02 -2.017077815538501113e+02 -9.061187189228144234e+01 -3.481516222764719259e+01
-1.825718826610883383e+01 1.311248648656437581e+02 1.503164907124582896e+02 -8.323273013502101492e+01 -5.442757043510496828e+01 1.407078444869456462e+02 -2.202041498506435460e+02 -3.098299113047839910e+02 -1.954850225719989965e+02 -1.489708813549844990e+02 -5.314657677116154844e+01 -6.183164710606555481e+00
-2.699487050393559073e+01 1.276063880760284093e+02 1.565428175726921722e+02 -9.124587076724188250e+01 -4.876784853355441385e+01 1.429729216533539784e+02 -1.669263160531577341e+02 -2.280573412329792689e+02 -1.133108125615294171e+02 -8.856955382002816179e+01 -1.263876680355124726e+01 2.186275386075081428e+01
-1.077564460660368262e+01 1.216493870764232810e+02 1.344624930633343354e+02 -7.212901532973835117e+01 -5.351524359794319707e+01 1.287049310266158386e+02 -1.329193448732764580e+02 -1.599573565363868113e+02 -4.060552133615281178e+01 -3.149434201164219616e+01 2.452540290857372796e+01 4.375738256054855668e+01
1.542493984992912015e+00 1.098186565470366389e+02 1.094254448845288152e+02 -5.343045013581402003e+01 -5.363677329142704764e+01 1.091571239844133316e+02 -1.022376946637294992e+02 -1.082034807953392317e+02 1.488705040523303680e+01 1.723984064592363552e+01 5.380832275658051600e+01 6.360216826017214231e+01
4.594431042397725484e+00 9.090783821733798220e+01 8.630936452376481327e+01 -4.037041436501989011e+01 -4.576966945442729440e+01 8.806247555125257520e+01 -7.153699043190528073e+01 -7.258820577016091136e+01 4.864532490485186145e+01 4.696533765785957115e+01 7.187961922801174808e+01 7.270607140577931204e+01
8.721474407198041234e+00 6.865805318457799444e+01 6.085573682516870520e+01 -2.556087298476083092e+01 -3.710398432107991340e+01 6.558228150661454947e+01 -5.391028842647259722e+01 -5.816784027744326124e+01 5.775412923642413432e+01 5.718509298955093101e+01 7.141328193506410571e+01 6.836493493531209253e+01
1.078861762194152440e+01 4.575296237303630420e+01 3.515533977243162411e+01 -1.127469442719712589e+01 -2.683507105727869302e+01 4.118685693826387961e+01 -4.844501748973520705e+01 -6.138310126576234182e+01 4.555268786803071634e+01 4.942753118321444816e+01 5.404514902362673467e+01 5.106891065349143588e+01
1.274514845541309427e+01 2.972986875659508854e+01 1.679971411169894679e+01 -9.353215419370938255e-01 -1.967200038180343569e+01 2.266231016626968398e+01 -4.192444920582818924e+01 -6.814112338273189096e+01 2.720824382604798686e+01 2.968146422823862451e+01 2.845379265926439061e+01 2.940516261272951226e+01
1.733988154720822905e+01 1.739761820364584111e+01 1.147861744133376494e+00 8.953394610766475026e+00 -1.595631614000142839e+01 9.823778412873487298e+00 -3.368261075651034275e+01 -7.637405534743828639e+01 1.015423406145591656e+01 5.943630873159476025e+00 -2.576574626578263416e+00 8.693015281644267844e+00
2.096358273117588311e+01 1.856691934968404922e+01 -3.246717220631440970e+00 1.415892547393110412e+01 -1.772654619470786130e+01 6.743710367195762778e+00 -2.843818206992420627e+01 -7.822508585176043994e+01 7.451110925273884966e-01 -8.849378257368043066e+00 -1.737441392474912405e+01 -3.255728252649340071e+00
2.332036732713898530e+01 2.411723269646510204e+01 5.502316599403450637e-01 1.199185443891006386e+01 -2.224075448924423171e+01 1.218275121577584130e+01 -2.525404582432659595e+01 -7.543510411816129135e+01 1.746930534973434312e+00 -1.345284775262134858e+01 -1.601612540007895902e+01 -5.397042133022095456e+00
2.880016405849374905e+01 3.304700483874105998e+01 5.316336481687939042e+00 1.225649700395062602e+01 -2.851312192412480329e+01 1.928344325554174432e+01 -2.240908987935777574e+01 -6.746275157533949596e+01 1.623556882223891051e+01 -4.473913498450441395e+00 -4.403903818822633376e+00 1.746307052870435417e+00
2.970362684781169804e+01 4.129168540224059569e+01 1.159989973888867887e+01 9.032893909065586868e+00 -3.336841524234522183e+01 2.554064076095811586e+01 -1.845552786223190367e+01 -5.332088968379852645e+01 3.557927902329568326e+01 1.270766106270671791e+01 1.021625929600161342e+01 1.627998810436940502e+01
3.439511777764257516e+01 4.257497403820650561e+01 9.105349961785464075e+00 1.397971330118239663e+01 -3.700313238082546974e+01 2.472400973290304549e+01 -1.362538511680285502e+01 -4.461882281198799660e+01 5.209674717868729488e+01 3.216072237635704312e+01 2.388577372601703530e+01 2.740273407177432219e+01
3.731853173949925662e+01 3.661660096208805726e+01 -5.610895165450707767e-01 2.012035600334809260e+01 -3.541709928243408712e+01 1.841702530369160939e+01 -8.492941082958095578e+00 -4.105201274118685717e+01 5.833616118176714593e+01 4.674708216745594314e+01 3.311331112100585727e+01 3.161546655227922642e+01
2.630712227272284309e+01 2.919417969771923538e+01 3.642280403075908612e+00 1.174711173758473670e+01 -2.673575442936161650e+01 1.692090152870748554e+01 -3.656994201816535117e+00 -4.341411173387538724e+01 6.118944539751509382e+01 5.137644285716220338e+01 3.629231485154534198e+01 3.157434317936650459e+01
5.194491446172786908e+00 2.050299545549153635e+01 1.652229413702927374e+01 -4.219611329251005571e+00 -1.142849654155165418e+01 1.950042623813006415e+01 1.584125018474891622e+00 -4.926917998474430505e+01 5.853786395473587589e+01 4.585983799328447930e+01 3.333616884844786910e+01 2.562680459714841419e+01
-1.289852541071801717e+01 1.665832700593131221e+01 2.951881838063926011e+01 -2.011376612334861136e+01 -3.017523123273081476e-01 2.282107814446530014e+01 3.877826394384304098e+00 -5.613037132925985873e+01 4.792864306030143950e+01 3.474588499340788417e+01 2.717232684153415789e+01 1.979956598724492167e+01
-2.736722204426881788e+01 1.196325596608085284e+01 3.942182246618488506e+01 -3.246148278104315921e+01 8.671291984007069686e+00 2.464197537813851469e+01 4.062538373550442117e+00 -6.258730452906209507e+01 3.551851620420185185e+01 2.197368021090287016e+01 1.937583605944178800e+01 1.353746766724315620e+01
-2.204697048677460103e+01 1.844536995777712463e+01 4.037486094959643879e+01 -3.014935286156720551e+01 3.721478557563228318e+00 2.841801222460319210e+01 4.674311204191945457e+00 -6.246551026514575966e+01 3.461993351914127004e+01 1.549447558910015132e+01 1.719534930761185620e+01 1.091069030412981533e+01
-1.482219760861160696e+00 3.334142867081887118e+01 3.497852971270338429e+01 -1.691928042438189550e+01 -1.474358583853067906e+01 3.438562667953819840e+01 7.754830457540136557e+00 -5.762983935413471670e+01 4.415580741998698500e+01 1.621245937393722159e+01 1.845242105797082743e+01 1.446466193657363775e+01
1.694383292192743795e+01 4.176301007988119807e+01 2.456715774824925802e+01 -1.659698529359386443e+00 -2.809165118329289967e+01 3.391510856074044966e+01 8.867071076504046800e+00 -5.253325562658204717e+01 5.465914842815223551e+01 2.245610702749720744e+01 2.104836672042147327e+01 1.604245032732562493e+01
3.336358294847332928e+01 4.286237765828893487e+01 1.146946172437611544e+01 1.148771281646754971e+01 -3.597092403284876383e+01 2.653939255658911733e+01 1.072161544826435708e+01 -4.928089669951905449e+01 5.891437755712676250e+01 2.808919039745336477e+01 2.248116838930994632e+01 1.844886747851703745e+01
4.230794090139892205e+01 4.161632491607262097e+01 3.471943444889063479e-01 2.198754494540787974e+01 -4.020174893226079149e+01 2.192919235198372618e+01 1.276151245827885639e+01 -4.643694732461740671e+01 6.583138998452723456e+01 3.366735868417482891e+01 2.426727924904064437e+01 1.867692353754321388e+01
4.837264327308103873e+01 3.715325524931866852e+01 -9.313431505913305486e+00 2.931017555004051900e+01 -3.956469205238813913e+01 1.443511561656284492e+01 1.474762128613889978e+01 -4.397877275652952278e+01 6.667517870977773953e+01 3.665995368297102885e+01 2.370995733559057328e+01 1.419749730689019884e+01
5.075047155616407935e+01 3.924054192628313587e+01 -1.029343192544900454e+01 3.197234462411687872e+01 -4.441587032479094432e+01 1.544935036607854251e+01 1.746505465913913824e+01 -4.713727941604577154e+01 6.743796877409570811e+01 3.422064266057324744e+01 2.214789285704099342e+01 1.162429950106985288e+01
5.488644773076157435e+01 4.709057731363377997e+01 -7.745882590646584909e+00 3.232018654824383219e+01 -4.869322396143664378e+01 2.023786785137403399e+01 2.240697988577737476e+01 -5.509231679539132642e+01 6.343556235515284669e+01 2.402386560397465232e+01 1.264393422331372818e+01 8.057147259870651723e+00
4.183413220451976144e+01 4.866304243027850163e+01 6.802930669880879577e+00 1.942753347414965859e+01 -4.396075719731314280e+01 2.783828537051049778e+01 2.644665871368502508e+01 -5.898453035564207880e+01 5.869893503426614245e+01 1.822843521755420326e+01 1.167533552199149049e+01 7.994007757626346411e+00
1.271983403036618476e+01 4.343024818344026983e+01 3.074279664052743044e+01 -7.448309633013790787e+00 -2.681190366689634175e+01 3.689194230221249882e+01 3.145124902523468080e+01 -5.889061483931667595e+01 5.752807348493826112e+01 2.124289658227398547e+01 1.624568367982876893e+01 1.039509522587896129e+01
-2.566570713072694243e+00 4.108609420352882324e+01 4.360873158320251974e+01 -2.150664243820997967e+01 -1.760152869971979683e+01 4.425422872932820439e+01 3.239607587481796713e+01 -5.993859323448072729e+01 5.840577412576361382e+01 2.173068051247296495e+01 1.839677060655888141e+01 1.155528201799035060e+01
-1.050729390263310314e+01 4.340251535865451871e+01 5.397153396295041006e+01 -3.214388234135403621e+01 -1.506459577801049932e+01 4.938879740905716176e+01 2.924005297443535412e+01 -6.001660308551952738e+01 5.903096189991784826e+01 2.018955209677535834e+01 1.664074261157791312e+01 8.700635297875194851e+00
-1.289314997200264656e+01 4.516465968457154645e+01 5.795268573344756646e+01 -3.415728981710473278e+01 -1.492115226888236101e+01 5.280803378985064001e+01 2.814414140874557901e+01 -5.859575759971605891e+01 6.698705104557062384e+01 2.721458326520309257e+01 2.192990297177034975e+01 1.396126554229952710e+01
-1.135705991644243795e+01 4.638504007025773035e+01 5.865984392678379322e+01 -3.382662032083524650e+01 -1.675911021652882482e+01 5.379208797459531155e+01 2.705085503788151158e+01 -5.197108000256098848e+01 7.803125949483911938e+01 3.539708880191322748e+01 3.318084727572640702e+01 2.430257885965413323e+01
-1.302638227116720238e+01 4.904611723789282252e+01 6.312014417222928842e+01 -3.713675191428202993e+01 -1.551785352086360703e+01 5.646601295642196305e+01 2.774574616391669579e+01 -4.723738980247081543e+01 8.772352971849684877e+01 4.525889076214579632e+01 4.182817015136179606e+01 3.353472821639285684e+01
-1.941253992182505428e+01 5.047014100724950936e+01 7.005552133165441830e+01 -4.418193428988968918e+01 -1.393325219072450061e+01 6.055154509969643328e+01 2.979751905067266549e+01 -4.535406427057844070e+01 9.100859121295194143e+01 5.100292093919541259e+01 4.334136729466121807e+01 3.640892000555243158e+01
-2.502131041572401315e+01 5.078600632882472610e+01 7.566894696737070092e+01 -4.857794399455506351e+01 -1.099401265505044023e+01 6.207461080450618596e+01 2.944152408854390046e+01 -4.455809665172802170e+01 9.599978050427691301e+01 5.587369468534489414e+01 4.846675683719198702e+01 3.987186634057051293e+01
-2.835561620171530350e+01 4.539469079720219469e+01 7.391318256128379005e+01 -5.022775852121268514e+01 -6.801524704611585648e+00 6.050167574268989767e+01 2.478103561834634050e+01 -4.938840343650297626e+01 9.663980199264301518e+01 5.757699676887439466e+01 5.253621514760959599e+01 4.076545936352270871e+01
-2.535006270295011177e+01 4.111141333500962247e+01 6.622121930362438036e+01 -4.520860288369723889e+01 -7.428930484312694205e+00 5.426305375179187962e+01 1.958543211923229777e+01 -5.253574288839238449e+01 9.581368932589624876e+01 5.686887041781838548e+01 4.966018274292924417e+01 4.053231748970365089e+01
-1.962367341004348731e+01 3.434734642408606931e+01 5.510527986781834642e+01 -3.552666984756574919e+01 -5.515228833969992195e+00 4.523086054882962515e+01 1.637167393288778072e+01 -5.726462939221438830e+01 9.273849860223791097e+01 5.214173067995527333e+01 3.799319570530981593e+01 3.645751895156627143e+01
-6.162727503076681934e+00 3.387481573495357168e+01 3.990854760393062861e+01 -2.314800928067501218e+01 -1.262366027106090094e+01 3.692935810070310509e+01 1.272394846323365059e+01 -6.076651629007861288e+01 9.254421091549411926e+01 5.046317718841573452e+01 3.415436068940132230e+01 3.264443056707609259e+01
1.060955687903482136e+01 3.711001910934405146e+01 2.842712296509316872e+01 -7.839673893188049192e+00 -2.262048553642074467e+01 3.321807981699548407e+01 8.347378380378588147e+00 -6.261270672402525150e+01 9.229096361505582991e+01 4.973387230547231042e+01 3.553360502138806964e+01 3.006436271813834793e+01
2.214096813220989546e+01 4.173031483395686081e+01 1.983679945221442509e+01 1.150359153200797291e+00 -3.017120671341677252e+01 3.047757058495831117e+01 6.402642682271206809e+00 -6.626356450745183224e+01 9.229502459121762570e+01 4.653484588848318992e+01 3.490295785512068250e+01 2.701855121104568269e+01
2.840748372799847488e+01 4.508815212541243511e+01 1.748792162183406873e+01 6.015231687786256387e+00 -3.636141080407504944e+01 3.104466122979592413e+01 3.873939984004502346e+00 -7.085231095178519922e+01 8.632630994583655593e+01 3.953697234001102601e+01 3.067962284030013365e+01 2.256098593306680300e+01
2.127581154685154630e+01 4.979145998817887886e+01 2.802270295884215656e+01 -3.839559986880926701e+00 -3.364163189855081981e+01 3.951591287270097297e+01 1.083551221339618387e+01 -6.518128873847129512e+01 9.685564063729829343e+01 4.882891968616535650e+01 3.795757861920010612e+01 3.234795929945197202e+01
-5.776327590867101902e-01 5.158795241187382175e+01 5.073475189445226619e+01 -2.528803033531901079e+01 -2.391764179700867388e+01 5.114781520789686198e+01 2.689589437468216460e+01 -4.816493104777402579e+01 1.134078535963410133e+02 6.628745567481944079e+01 5.610806599772300274e+01 5.316746387344084468e+01
-1.902668304542742916e+01 5.094559435011273507e+01 7.101661448433029022e+01 -4.452633912810836847e+01 -1.446170913198604779e+01 6.032340076551833619e+01 3.643274617633877455e+01 -4.210178484509661700e+01 1.246542143916260841e+02 7.837287492265259914e+01 6.843369717426062948e+01 6.315084705955322164e+01
-4.353901593981888851e+01 4.525447868044889788e+01 8.803441706401163458e+01 -6.481508677884188785e+01 2.340812731405211011e-01 6.444594297192236354e+01 3.809793008735853448e+01 -5.162722486808015532e+01 1.266048567293064480e+02 8.314261155648148360e+01 7.379059233607658541e+01 6.191178116722663560e+01
-3.387214696599247077e+01 4.632002217798144983e+01 7.983793391570493725e+01 -5.632591148573854412e+01 -5.300937003723803720e+00 6.336313888776272307e+01 3.433533383691598573e+01 -5.813997014839099364e+01 1.243454286212508180e+02 8.249816517840889674e+01 7.607477016741131592e+01 5.999503079289554108e+01
2.811891526660420748e+00 5.434860165840525070e+01 5.262672544857038304e+01 -2.355980101056987408e+01 -2.676140113787845110e+01 5.319823064332633322e+01 2.429661036806679419e+01 -6.502863659408549779e+01 1.188414877401947649e+02 7.437036772755722325e+01 7.009744398726942904e+01 5.436439123489770964e+01
2.622579745527924899e+01 6.093973733951481364e+01 3.475093689933031982e+01 -3.465940123210522472e+00 -4.104784471004492730e+01 4.763968078180505472e+01 1.925873894035490963e+01 -6.803730172408627652e+01 1.185484811330552759e+02 7.174967137570749287e+01 6.883055126279693070e+01 5.233204753557989619e+01
3.647049291858306930e+01 6.164787105282152169e+01 2.600457742963831720e+01 5.465750459650752902e+00 -4.701786720697928956e+01 4.433909546906691190e+01 1.806538175865764728e+01 -6.869283499619419331e+01 1.189214997297036689e+02 6.962536947030764622e+01 6.414961428076162520e+01 5.254606428157248388e+01
4.266600994333520447e+01 6.153993350039031895e+01 1.995428697871217949e+01 1.328633347860319169e+01 -5.007943461498059179e+01 4.090991520189988506e+01 1.877656879635503628e+01 -6.930818779736419799e+01 1.238664518340199834e+02 6.965648455008891915e+01 6.332185218386941727e+01 5.331214791533624009e+01
4.765067666828849724e+01 5.995373516667535085e+01 1.324117861330792856e+01 1.879829842112421190e+01 -5.222689654699863837e+01 3.559736048122093877e+01 1.851691460634827635e+01 -6.712535550752861013e+01 1.277222420457823944e+02 6.840268197430573593e+01 6.347283484650760244e+01 5.355366690091675963e+01
5.091691591712280029e+01 5.500174242904456889e+01 5.171360623709998272e+00 2.397388755515848402e+01 -5.150242759127409187e+01 3.038632891406914283e+01 1.389033350363908070e+01 -6.839819094555468837e+01 1.307242166611241032e+02 6.955810330963360855e+01 6.376879633130778302e+01 5.287747689612336188e+01
4.656067221566986802e+01 4.532592451830178959e+01 -1.078226739557740954e+00 2.433712600421462824e+01 -4.405543160825280324e+01 2.187073790347368529e+01 8.007687734846209437e+00 -7.248528617893049386e+01 1.299872540204266613e+02 6.920396005921645610e+01 6.081624284386969492e+01 4.981082564656336586e+01
5.205874660786341224e+01 4.439962493208646777e+01 -7.785767882870453960e+00 3.079339667636246602e+01 -4.572730149852465331e+01 1.844099443858149456e+01 2.525732039419521957e+00 -7.468841018580494051e+01 1.326987141450427146e+02 7.074225439676584415e+01 5.984230830610479046e+01 4.879417877585658658e+01
5.867889377319902877e+01 4.419021768966882036e+01 -1.361237043987630102e+01 3.798268707698021274e+01 -4.971054577663240082e+01 1.607042321152237108e+01 1.054332626517703764e+00 -7.685266002980007727e+01 1.319466738154262941e+02 6.923201814856280123e+01 5.741549527242426620e+01 4.656955723320650975e+01
6.333428418287439854e+01 4.874231366481068051e+01 -1.350098695224299483e+01 4.056752023888264347e+01 -5.510400839597154743e+01 1.747648536641969130e+01 1.648229461881969005e-01 -7.486774734986590829e+01 1.347951436531728007e+02 7.147752384305901785e+01 6.076776627219829408e+01 4.744617447828961332e+01
6.028528665350636118e+01 5.117161264132615628e+01 -8.954219820789361961e+00 3.570120532279192815e+01 -5.387997039996287896e+01 2.129675441216637566e+01 6.277264222815099881e-01 -6.967287076577717642e+01 1.330736281801114274e+02 7.193915953243667616e+01 6.477390555676313966e+01 4.731156177536838214e+01
5.841770794520824950e+01 5.416872598236989234e+01 -4.338188487274246441e+00 3.238963224938646590e+01 -5.421141289152914311e+01 2.468559828123435906e+01 2.087884597567218226e+00 -6.699912766602318470e+01 1.357135123665263734e+02 7.402722517897305465e+01 6.708941988079597252e+01 4.799655807581665101e+01
5.892103355764015760e+01 5.502096835137455599e+01 -3.842983108465080289e+00 3.231194642668803141e+01 -5.505563749492694114e+01 2.592396087409985839e+01 1.102989652180636382e+00 -6.933163810477461197e+01 1.348655200439618795e+02 7.049139494625835312e+01 6.126909893661404993e+01 4.317696121243143637e+01
6.917436931395297961e+01 6.238576236246081663e+01 -6.144977949325659772e+00 3.916119625705994167e+01 -6.364188386432930855e+01 2.654034417335350682e+01 3.279542721807198191e-01 -7.126361529757642188e+01 1.385650939918931499e+02 7.027957889788517321e+01 5.880111625546091147e+01 3.952785080912526183e+01
9.157699055774561714e+01 7.675523694123216956e+01 -1.272735957617542013e+01 5.318210934347100505e+01 -8.311029484215589491e+01 3.191949860688050933e+01 -1.873038985339248175e+00 -6.918764028315509051e+01 1.387417868504248588e+02 6.563128368895804954e+01 5.748280892843119005e+01 3.300841325587813913e+01
1.129991145164526785e+02 9.085416633818323362e+01 -2.105855543919460970e+01 6.847658958031466625e+01 -1.001469978729439276e+02 3.439068845063053459e+01 1.034874623393525206e-01 -6.901036925806997147e+01 1.412547488695144864e+02 6.320085950180234136e+01 5.496005935990342550e+01 3.260967068585522810e+01
1.331016420737147428e+02 9.980609711669568185e+01 -3.297451570123986642e+01 8.410031199638588362e+01 -1.142967012879807953e+02 3.348531445629563308e+01 5.329212249720868044e+00 -6.705660818859070105e+01 1.383709542939710104e+02 5.350781413406598830e+01 4.808080957247450726e+01 3.185600945416602414e+01
1.297472376205641069e+02 1.053451293679412970e+02 -2.484416695513262852e+01 7.905906778917471911e+01 -1.164232942669486022e+02 3.921905540952983671e+01 9.004899376697247604e+00 -5.671353446794820741e+01 1.500628978217330030e+02 6.259629783868314945e+01 5.781050210408665890e+01 4.105630091974886398e+01
9.450231203736980490e+01 9.797120945852921636e+01 5.659346269625627812e+00 4.654374789936986900e+01 -9.531742057417037017e+01 5.256661416468651282e+01 1.737098203106313576e+01 -4.053257678211094373e+01 1.666609754712137033e+02 8.160187784316312332e+01 7.505128911426668026e+01 5.578497878795715792e+01
7.549336807576497677e+01 1.000656319429176193e+02 2.303790327433143048e+01 2.817348220632863587e+01 -8.632282960013149875e+01 6.140518296420097499e+01 2.227076668038074914e+01 -2.920943708121007987e+01 1.862390144257038287e+02 1.011826074727232481e+02 9.115584413296798516e+01 6.968745963269216759e+01
6.519118432171221400e+01 9.904280033279698614e+01 3.403449035878671225e+01 1.687712572924823107e+01 -8.063526110990588336e+01 6.664326005902562144e+01 2.134399701969640617e+01 -2.453713822725452331e+01 2.001494620116187093e+02 1.151178496314484505e+02 9.764035953691809766e+01 8.015770370013743218e+01
5.028497110435172601e+01 9.562143747762300450e+01 4.682805560000774392e+01 2.794167639398003278e+00 -7.136312114367433423e+01 7.163154301860780038e+01 2.774749903715966681e+01 -2.024375559874219022e+01 2.154182498255993892e+02 1.326035350946633855e+02 1.090386158555829752e+02 9.284532405303039582e+01
2.089542274297927094e+01 8.835949626762445064e+01 6.735681126391176576e+01 -2.012761139008421551e+01 -5.401361881959898881e+01 7.713633417407342563e+01 3.375517960950008245e+01 -1.241340768556122143e+01 2.228611397212762029e+02 1.434959710054453979e+02 1.172297253124324641e+02 1.022191761599070503e+02
2.184857312820582820e+00 8.707867211462823320e+01 8.434020219779544902e+01 -3.984017224136960067e+01 -4.372717596623679270e+01 8.583310607454367869e+01 4.425299842583407184e+01 -3.983100263311453837e+00 2.355850145360467138e+02 1.602800876642669152e+02 1.306169801714163725e+02 1.154138822232045385e+02
-9.185340117988747721e+00 9.139267224278893309e+01 9.906505560339051897e+01 -5.240941789001702489e+01 -4.084902142885329823e+01 9.502642685005703527e+01 5.846306377909282759e+01 8.140792037542842863e+00 2.427812642947247070e+02 1.733448224791940220e+02 1.410793480204319224e+02 1.272616981038059407e+02
-4.417377201014407007e+00 9.402937464837835080e+01 1.002262567248426848e+02 -5.048831192645474886e+01 -4.426970318239692403e+01 9.774032656846233635e+01 5.948304559385222490e+01 1.319571611926959420e+01 2.542563407850676924e+02 1.861958650206579762e+02 1.512276132189697364e+02 1.333718818318475030e+02
1.084545381958206534e+01 9.407707719259153123e+01 8.443455549344359667e+01 -3.633543920526027193e+01 -5.032890018609422356e+01 8.952576160901166702e+01 4.983448200833088748e+01 1.204431856616269769e+01 2.575106323198626228e+02 1.874056130643721758e+02 1.517708478130408025e+02 1.291970167665409690e+02
3.987583174768626293e+01 1.018000495039019881e+02 6.291457426379619733e+01 -1.017060766082263612e+01 -6.944803391863703723e+01 8.359170604204047095e+01 3.921815537905438021e+01 1.069192634223452210e+01 2.623064070802062702e+02 1.892451824978013235e+02 1.529667886207597576e+02 1.289788704336428680e+02
7.176709521071846609e+01 1.078634000277041594e+02 3.633229697045567264e+01 1.926370121401932067e+01 -8.771799213765424952e+01 7.156764077341154007e+01 2.899073034381977365e+01 7.247143359689528275e+00 2.553889708946231849e+02 1.812426115497416106e+02 1.448031727124268002e+02 1.222152693109245831e+02
1.049056502190329923e+02 1.231864710203283693e+02 1.811370624915219452e+01 4.489058702175678661e+01 -1.129663535855158472e+02 7.190621956648985247e+01 2.750533285917640924e+01 7.592248403749469965e+00 2.608819039456491282e+02 1.824033271565844530e+02 1.448865284229946155e+02 1.248173146231118977e+02
1.265234520541300753e+02 1.357069828140586480e+02 1.004402521410847804e+01 5.938991840794760435e+01 -1.300328495593646494e+02 7.323628167539453671e+01 3.122947333900959066e+01 1.045080683667378096e+01 2.643071954500835545e+02 1.822124122850273977e+02 1.458066053553650079e+02 1.249697848736035581e+02
1.424748071880381701e+02 1.460945958218637770e+02 4.724992227122883470e+00 6.941215642704655409e+01 -1.438315658965687476e+02 7.597828908407728932e+01 3.385388814237217048e+01 1.198033348618402272e+01 2.754251471029091363e+02 1.917127542301792857e+02 1.533138357159046166e+02 1.323515560318088831e+02
1.465189185527061966e+02 1.505538186276690737e+02 4.218551471729536928e+00 7.162799576050397832e+01 -1.471664395377582650e+02 7.870089300560968582e+01 3.536387981247334267e+01 1.275039225074056759e+01 2.754095862493541063e+02 1.945285937390919742e+02 1.571633779521236249e+02 1.352672513588384504e+02
1.445308699967689563e+02 1.542677223375255835e+02 9.605484580191347987e+00 6.833486280018085779e+01 -1.479403332058452065e+02 8.226183719670328287e+01 3.913446680776090858e+01 1.299338736908745240e+01 2.859995609655118756e+02 2.053217048840769223e+02 1.657347263414910969e+02 1.446153409147056834e+02
1.310980012324303914e+02 1.491029442040392041e+02 1.882489981800403456e+01 5.724930792044595762e+01 -1.380860961440860706e+02 8.508056340088546676e+01 4.485361592461513425e+01 1.587014748667112940e+01 2.832460323706365557e+02 2.059094751436107913e+02 1.692768684015549354e+02 1.461162751327288447e+02
1.256208471846739485e+02 1.536136180454158762e+02 2.915045780212358650e+01 4.875418645114094574e+01 -1.384864360674939974e+02 9.177667293798579351e+01 4.678372257486815045e+01 1.908077344347938720e+01 2.969049084103557448e+02 2.227711532768192058e+02 1.829261123608719686e+02 1.571491433402250948e+02
1.138624459676434100e+02 1.535635131771855697e+02 3.978035570240555074e+01 3.760400602738400977e+01 -1.319849684898663611e+02 9.814664714591813777e+01 4.322875618542641263e+01 2.151408027307087067e+01 3.023096738520899862e+02 2.315367612685365373e+02 1.912537670057475339e+02 1.622296418987420736e+02
1.156363769851209184e+02 1.630601713478336308e+02 4.816888992686563853e+01 3.376434645015280722e+01 -1.372232517974364896e+02 1.059117557960782818e+02 4.042722105093384499e+01 2.642020986783455427e+01 3.187105779028166239e+02 2.481410826385909161e+02 2.035168672375658900e+02 1.729412711476099958e+02
1.078395047464835130e+02 1.590492717798601632e+02 5.233324711878150737e+01 2.816393402759463882e+01 -1.315012551384255062e+02 1.059329923165889511e+02 3.361258595799427695e+01 2.442813510159936641e+01 3.162552010181131550e+02 2.447553926398647945e+02 1.985385715400383617e+02 1.688934676717358911e+02
1.166586816252576710e+02 1.659243298830016329e+02 5.021635362306483330e+01 3.337980568134383930e+01 -1.396070322090734521e+02 1.087335512366537529e+02 3.210121336925745794e+01 2.853669974833662337e+01 3.321302776524647697e+02 2.558214303514530172e+02 2.060147960198183057e+02 1.789846007729146038e+02
1.219606940581095245e+02 1.608831423825398588e+02 3.925002611557177801e+01 4.156056110957442939e+01 -1.403670416935438823e+02 1.004446774228469081e+02 3.400727483574525678e+01 3.103914431253015849e+01 3.251379452337991438e+02 2.476526015566574586e+02 1.956729626743627932e+02 1.759743030103720969e+02
1.339482243870233447e+02 1.697093288263426984e+02 3.551471992590301596e+01 5.071384981050156426e+01 -1.512450152415700302e+02 1.028782189991277818e+02 3.459081040653309458e+01 3.417683245562146510e+01 3.438004572723851311e+02 2.633350411347595355e+02 2.106939552592088205e+02 1.878813069041256085e+02
1.253541970180504990e+02 1.591018366906185406e+02 3.403974261659779899e+01 4.634587318493641561e+01 -1.413824622272021259e+02 9.661539222719534337e+01 2.860433172745890928e+01 3.567646517130565087e+01 3.353383458350228352e+02 2.586194969877591916e+02 2.101673693948430923e+02 1.853944178663471973e+02
1.439966209770423688e+02 1.751899764720280928e+02 3.013784826590584842e+01 5.769006310466878773e+01 -1.588466004568687708e+02 1.044170988776510853e+02 3.059988224960219938e+01 3.644796786528027610e+01 3.606516559217116651e+02 2.835194432422138107e+02 2.293654926890871479e+02 2.019523618340855649e+02
1.444571386735435965e+02 1.672918298920428413e+02 2.270597204916955292e+01 6.211116828987405114e+01 -1.556004344642256569e+02 9.461762185313490647e+01 3.139685405198019197e+01 2.896479922195437595e+01 3.293008405995082626e+02 2.599541701072573687e+02 2.079874592330441772e+02 1.860011100386861074e+02
1.934172060993226125e+02 2.147880439858681427e+02 2.140114022944619165e+01 8.601030135682184152e+01 -2.029559142139902974e+02 1.188382713425303905e+02 3.823359412788767742e+01 3.662877451007084773e+01 3.905822608655553836e+02 3.098587491888776526e+02 2.496701232829586843e+02 2.244951935704231971e+02
4.229848322709054287e+01 4.192570428992110720e+01 -1.045377307527394883e+00 2.252864833156800017e+01 -4.240786110832468836e+01 2.105134716573888554e+01 5.027213148500095485e+00 6.746409010716586607e+00 9.166232059803294874e+01 6.555953890228050795e+01 5.486309037463872329e+01 5.569473860981261026e+01
6.152054796284244276e+01 6.477760190657100736e+01 1.939016139860956223e+00 3.037508548530832186e+01 -6.300465749648451208e+01 3.433092385283521963e+01 5.610451612617262107e+00 1.462683266247864289e+01 1.203110504330467023e+02 8.856794322933082242e+01 7.668387531777932509e+01 7.629222453687171424e+01
1.212283153696587448e+02 1.372770553481046250e+02 1.611073796405651493e+01 5.412753335165716351e+01 -1.284720047464561787e+02 7.648210552197197387e+01 1.566774747432480375e+01 2.564782388051328255e+01 2.479298017454266301e+02 1.924388244486918325e+02 1.638775824332971922e+02 1.484686280690862361e+02
1.279592216309598740e+02 1.463794143056531993e+02 1.814448015592307684e+01 5.686661024828904232e+01 -1.373927494526975011e+02 8.244159956948102774e+01 1.907823431306123041e+01 3.449700628727012486e+01 2.506606270685352627e+02 1.988772846369317904e+02 1.718063074969887793e+02 1.530484856271391720e+02
1.572038326460657913e+02 1.703383533374626779e+02 1.426636793391076274e+01 7.185087683808400527e+01 -1.620360572893306710e+02 9.224038668236656235e+01 2.880419792370701515e+01 5.564927491363514633e+01 2.718835313252696437e+02 2.209256870286973253e+02 1.918201332668957662e+02 1.703632480961092313e+02
1.499074864817015111e+02 1.628758540028694881e+02 1.282077693283237707e+01 6.994657744657527587e+01 -1.550628210149359631e+02 8.708582382189501914e+01 2.904061628936518957e+01 6.955413056862334997e+01 2.422302806107415734e+02 2.042630096087525828e+02 1.803349105364848128e+02 1.585072908240100560e+02
1.536594545388504116e+02 1.694535965982921653e+02 1.825619738019060279e+01 6.917614350691783898e+01 -1.607291306394064065e+02 9.353453302269419112e+01 2.534404493225681065e+01 8.741674423655751980e+01 2.430743863462280387e+02 2.174778384978293104e+02 1.902060806520668166e+02 1.641733152027649965e+02
1.492431329656896537e+02 1.686672210207200919e+02 2.190774361774585444e+01 6.520604203173509461e+01 -1.575105642619127480e+02 9.500056818544716464e+01 2.513044395068920522e+01 1.028695374955033657e+02 2.333426414036511005e+02 2.189321800846998372e+02 1.890674349099431879e+02 1.639794467368874678e+02
1.671521573997715677e+02 1.930617216456294045e+02 2.697685340356114381e+01 7.188153555763854285e+01 -1.785162651347147857e+02 1.099090030617407194e+02 3.228262842745806438e+01 1.264769891084917930e+02 2.590149817081606329e+02 2.475901176563219224e+02 2.100827170385401530e+02 1.857629737346426282e+02
1.769049265901745684e+02 2.079133866133807373e+02 3.189822091809356053e+01 7.437896016424463141e+01 -1.914619458162686385e+02 1.190275097799703161e+02 3.723182390229865035e+01 1.489504687840528447e+02 2.721795010680810378e+02 2.650476638878433278e+02 2.237110506098522364e+02 1.993353823080285565e+02
1.929703576084744157e+02 2.272796396104023984e+02 3.619616220020094488e+01 7.913918052267811731e+01 -2.078755383739294302e+02 1.323148478224927089e+02 4.278775046325856835e+01 1.765564621599255872e+02 2.983008923343302854e+02 2.950691194529304084e+02 2.483217492195159366e+02 2.214759345261757346e+02
1.968863270597290125e+02 2.357763253085051076e+02 4.016343271941642712e+01 8.015147124825104186e+01 -2.148366150992318353e+02 1.382377592658489505e+02 4.494494983008194566e+01 1.989425248581632673e+02 2.952570229218046052e+02 3.015298879105265542e+02 2.524274774037553755e+02 2.248424933553820040e+02
2.029194601303717320e+02 2.452591770994078502e+02 4.323951622979247134e+01 7.975655494423692460e+01 -2.230376221267792403e+02 1.451417541604237442e+02 4.741747671132849007e+01 2.129675707650759477e+02 2.869052779324395033e+02 3.041943239438856494e+02 2.548916193774759904e+02 2.257586080811640556e+02
1.883766451086498535e+02 2.352907897214057300e+02 4.793821892576265498e+01 7.235965373116900423e+01 -2.096657472678525664e+02 1.402513807320607384e+02 4.661821986740712731e+01 2.227731101106924712e+02 2.490948599821734888e+02 2.815930337803141583e+02 2.369652996720549538e+02 2.101338933503248256e+02
1.724272640428026762e+02 2.219720037367039254e+02 5.061214937697773308e+01 6.197816758298485951e+01 -1.953560184679507756e+02 1.356383513018596148e+02 4.608453432571292296e+01 2.287954120006992014e+02 2.121546464351120278e+02 2.562260352438067343e+02 2.183490424709338811e+02 1.942502893790295104e+02
1.447932256346300051e+02 2.003361307546807097e+02 5.575647109883821173e+01 4.573628660015634750e+01 -1.710302000460727641e+02 1.271162987618369584e+02 4.335531713677521992e+01 2.321281785853117583e+02 1.711084317060510784e+02 2.252191440191885476e+02 1.967992181863657777e+02 1.725956685304507516e+02
1.222480931710771159e+02 1.868940901344036831e+02 6.457921130848617963e+01 3.210969409985886358e+01 -1.547355757149315991e+02 1.254760950235574057e+02 4.605941777438323470e+01 2.387274652032332369e+02 1.558364517578781943e+02 2.130222023571077159e+02 1.867611372746961251e+02 1.644615137213965568e+02
9.799804356670479422e+01 1.702747837451636883e+02 7.228784233533829706e+01 1.450212509147531570e+01 -1.328988721722307957e+02 1.213681030997196046e+02 4.727596660465962231e+01 2.388142921751684185e+02 1.386159321595808649e+02 1.988861532706499418e+02 1.758767174438567054e+02 1.531044042820180096e+02
7.892677680638661286e+01 1.630375387920222749e+02 8.414334410380187990e+01 -7.671515478987637193e-01 -1.190029328629358645e+02 1.235878866515038652e+02 5.659289594516069144e+01 2.392839059171180338e+02 1.364434599612482657e+02 2.030791672972177082e+02 1.734615689198415680e+02 1.523910066084841901e+02
6.509743850380311869e+01 1.528866578849101643e+02 8.770835409716741538e+01 -9.187342253030182704e+00 -1.079910494184960044e+02 1.199099415252230187e+02 5.680440615512059566e+01 2.380789585886586792e+02 1.263964996422053986e+02 2.001914643566441327e+02 1.658971221909835378e+02 1.468211892238762175e+02
6.363708025009340474e+01 1.458612857099216171e+02 8.237411769379781390e+01 -7.854687806139589945e+00 -1.046127646033472018e+02 1.139143403204486873e+02 4.766731828901055934e+01 2.378360355611777948e+02 1.231745843013710413e+02 1.982096313570034738e+02 1.634243318183003453e+02 1.391641667394598016e+02
5.933610690562356638e+01 1.392366591091292491e+02 7.961336967734700920e+01 -8.210116201732327923e+00 -9.810984471970982668e+01 1.095590576628099484e+02 4.622695552512416839e+01 2.412965929784900538e+02 1.087931068999934183e+02 1.869483119781257869e+02 1.542540450765868627e+02 1.302402951036059164e+02
5.933531523767140214e+01 1.385511537224926428e+02 8.036694145887982188e+01 -8.905399887017621197e+00 -9.790788064039770688e+01 1.093150765178546209e+02 5.467375208782304696e+01 2.474078451604990505e+02 9.975890283067481334e+01 1.778002027658715463e+02 1.448917849230202251e+02 1.246823422941991168e+02
4.535372515006982752e+01 1.273397068215155201e+02 8.118374990365042265e+01 -1.604082002647501426e+01 -8.398646121431031020e+01 1.044996171542627081e+02 5.727391149510466306e+01 2.483293247544119424e+02 7.595811279558097340e+01 1.601801477787261661e+02 1.315804245938277006e+02 1.102000039563384206e+02
2.342690385077162674e+01 1.128925745413568791e+02 9.004465464116194084e+01 -3.222411514943407695e+01 -6.736740050619623332e+01 1.001475390879190854e+02 5.433510787472747694e+01 2.446233843653523650e+02 5.528964320122951648e+01 1.474372886679052215e+02 1.213579573247431398e+02 9.836416384228132870e+01
1.130670047917320176e+01 9.903565316013671804e+01 8.739522219576259943e+01 -3.834879650897870107e+01 -5.300703246163474347e+01 9.272096966628949133e+01 4.787243857102247091e+01 2.377296358817195880e+02 2.859532224429355196e+01 1.251516429312549548e+02 1.041474756948623366e+02 8.169943665171791736e+01
2.103512332383429140e+01 9.897829350721656283e+01 7.785990473667446565e+01 -2.703500854959631283e+01 -5.947585679606923037e+01 8.871221243317694416e+01 3.857469379639537976e+01 2.291445730015497304e+02 1.339580298166694838e+01 1.062286147628525441e+02 8.912237756010276257e+01 6.945339986101326701e+01
3.116933297632023070e+01 9.861932087425952886e+01 7.003115312923431190e+01 -1.867689335923657978e+01 -6.307996756904363878e+01 8.376514525116044751e+01 2.944330742310587468e+01 2.238382219517606018e+02 1.641891963431913570e+00 9.031087331691576026e+01 7.863708357406832761e+01 5.998680403478865486e+01
4.632329422186955270e+01 1.093781032556558301e+02 6.235516939556916327e+01 -7.292637851670857430e+00 -7.667498925561345402e+01 8.515831066463623245e+01 2.405116164219337449e+01 2.248888818456875356e+02 2.099641562500941916e+00 8.347804894850135327e+01 7.968096904769947741e+01 5.976612388989658342e+01
5.725451235239054881e+01 1.142199368392630703e+02 5.733228782856900096e+01 1.183017980095057764e+00 -8.426592763965629729e+01 8.474322956101831039e+01 2.283237359065644156e+01 2.267828480876547417e+02 1.955710486963404326e+00 7.879923476887580591e+01 7.905707691210128019e+01 5.899382989184675807e+01
6.467326579108976148e+01 1.146787421222874030e+02 5.137291508000326701e+01 7.075526935579552479e+00 -8.905565547848627261e+01 8.411884331820718330e+01 2.874194289971782013e+01 2.314677330170695768e+02 5.691882315279991111e+00 8.044570067528822221e+01 7.956929785864996063e+01 6.082385289703994857e+01
6.863636056923917295e+01 1.144248386389857473e+02 4.633421039358993454e+01 1.214982046678821881e+01 -8.994538503939159568e+01 7.970976105001064127e+01 3.356413122885887645e+01 2.317075934752641331e+02 7.761964512915614511e-01 7.781566389762957670e+01 7.494671460041782041e+01 5.883304837429670897e+01
7.447017931713278927e+01 1.117677927815812211e+02 4.018185866621209357e+01 1.798468887612544620e+01 -9.098594474286531408e+01 7.563131365430315611e+01 3.928648273893841036e+01 2.272415998473478282e+02 -3.378486604851238084e+00 7.897748291701812207e+01 7.284842752327109849e+01 5.553496675147372486e+01
6.217292301765565554e+01 1.007053721331051719e+02 4.004690989193674966e+01 1.272197871252144452e+01 -7.972825664461541351e+01 7.046295657434497173e+01 3.853489931852450923e+01 2.242318914216283758e+02 -1.409674667095709033e+01 7.231405663614948764e+01 6.773780772485471857e+01 4.810377611203539061e+01
3.681914971842428486e+01 8.518452816561416796e+01 4.918843237226083431e+01 -6.334467587704018854e+00 -6.016913455169405722e+01 6.754542612556220149e+01 3.142765150881398384e+01 2.219194340195991515e+02 -1.546538481080405880e+01 6.854806038451083339e+01 6.744456107637219588e+01 4.602493245231691787e+01
1.909801950522265557e+01 7.067739217975116617e+01 5.318080839738373555e+01 -1.659924050038335963e+01 -4.249248792878263714e+01 6.182818498531575813e+01 2.872574405888898141e+01 2.204738430381526371e+02 -2.557389594789117737e+01 6.052979487187926821e+01 6.074431429831039253e+01 3.869701593010868379e+01
1.934900571522020840e+01 6.709470783669297589e+01 5.093607265874717882e+01 -1.454180231081604902e+01 -4.226457610668431641e+01 5.824128834576137592e+01 2.926197102192952570e+01 2.219343787170814153e+02 -3.251687898607173821e+01 5.631196667254756250e+01 5.165479484556664858e+01 3.549843974585342465e+01
1.497394538413525922e+01 6.198560669643885035e+01 4.757793550117080628e+01 -1.515246159929513325e+01 -3.734765620788114404e+01 5.488953036830960031e+01 2.874508647353423996e+01 2.238523840592699230e+02 -3.671807310802120838e+01 5.104601468857786983e+01 4.680529389176355437e+01 3.161089476735748605e+01
2.231961911598227744e+01 6.662759641476611705e+01 4.556999507852192721e+01 -9.867135372551446792e+00 -4.357586071475938638e+01 5.529776289718891746e+01 2.929974977990985252e+01 2.269487091288942224e+02 -3.217412969536946576e+01 5.371342489171925649e+01 5.031021953808363634e+01 3.258174967057379234e+01
2.746699870828694756e+01 6.865157501493003167e+01 4.286718644303191184e+01 -6.462058213157428455e+00 -4.702829202574947942e+01 5.468096059450859059e+01 2.805111358573067903e+01 2.281123260642927164e+02 -3.346711637258415806e+01 5.217457592715961567e+01 5.018633121048909373e+01 3.139477115566610621e+01
3.431625101607797035e+01 7.282989340177053350e+01 3.909710914010673832e+01 -2.875146556229294936e-01 -5.245996456770379268e+01 5.531089983369083285e+01 2.811253099601614025e+01 2.302872559089647382e+02 -2.991068254894704026e+01 5.380476262641514751e+01 5.109614881635037875e+01 3.260137722260071769e+01
4.106854774926737406e+01 7.469732723051444623e+01 3.494464970645728386e+01 4.554309029293572841e+00 -5.781837919276060944e+01 5.473468665747067519e+01 2.730462078039505514e+01 2.296097980388870212e+02 -3.339030404421368559e+01 5.229755424518827311e+01 4.797245164909544002e+01 3.143067404464370540e+01
4.670644951010331170e+01 7.760625757585528106e+01 3.165188939643882549e+01 9.412172204383287166e+00 -6.094065795066426006e+01 5.466105832373988704e+01 2.563857609556469086e+01 2.304651143326654221e+02 -3.402055936326252095e+01 5.248395709619322957e+01 4.583874639800185236e+01 3.201660397971225080e+01
4.697277198317837588e+01 7.581951469334704541e+01 3.000665195531847829e+01 1.082479589302105971e+01 -6.096729665113990393e+01 5.288163126748100495e+01 2.340143449559379718e+01 2.288475014681626760e+02 -4.065502962595157044e+01 4.859348880074824706e+01 4.030772215833358985e+01 2.889008989056400267e+01
4.539297682354879981e+01 7.452204230189333600e+01 3.063099526719683396e+01 1.001335851244357222e+01 -5.932286127952789201e+01 5.263725301573154525e+01 2.212692898848818857e+01 2.298910877717201799e+02 -4.312190291617685034e+01 4.895697558457113985e+01 3.771949815931278494e+01 2.875414722811298418e+01
4.004166273318390523e+01 7.010030247615317478e+01 3.240492915950130737e+01 5.893614834241344802e+00 -5.471195245342140367e+01 5.085349165552517547e+01 2.262873540810833717e+01 2.305336855665238716e+02 -4.830272802717563962e+01 4.718693324775212261e+01 3.291536647716611697e+01 2.675903405615622077e+01
3.557258589838270524e+01 6.843567798556620119e+01 3.454128670297002657e+01 2.205243780419336108e+00 -5.136381715960445860e+01 5.125831624380312235e+01 2.316568078927960173e+01 2.319575732251998090e+02 -4.796565826956657475e+01 4.872143280027722767e+01 3.278395243010586313e+01 2.673556370685710704e+01
3.066132013828471514e+01 6.466791956954578779e+01 3.636619795879651207e+01 -1.522403084342907720e+00 -4.730527691683388980e+01 5.071421622081719960e+01 2.346161023255315570e+01 2.325083051687528553e+02 -5.003483506625790511e+01 4.791332259417110606e+01 3.124208314684164023e+01 2.534931653098355397e+01
2.742994798832863168e+01 6.555037197361794199e+01 3.913494297711799419e+01 -3.856681350490951843e+00 -4.584271255828637237e+01 5.177303668156267946e+01 2.498224271788234319e+01 2.339573495198735600e+02 -4.680279550658100618e+01 5.046748002805083644e+01 3.387376455594801428e+01 2.719212718696232400e+01
2.273636679837094476e+01 6.438426922010684450e+01 4.277423635395776813e+01 -8.129305816457653933e+00 -4.323844840882719609e+01 5.390462413031383448e+01 2.544939975251399744e+01 2.345386789918469788e+02 -4.628995701050131117e+01 5.059167653203583370e+01 3.559269757951117441e+01 2.777127728291279851e+01
1.932481767019562824e+01 6.619542223635929190e+01 4.771558330929156710e+01 -1.171398353204119758e+01 -4.174643140034864786e+01 5.684387464131140177e+01 2.762910552571640466e+01 2.353840878827757876e+02 -4.279799279162544678e+01 5.483943359367800241e+01 4.033171092307641459e+01 3.229772514716066212e+01
1.592552842200025331e+01 6.627036680570417104e+01 5.151125490738910173e+01 -1.569857737221572869e+01 -4.048411494638746433e+01 5.816241768754474606e+01 2.871117198224350986e+01 2.340496826264014203e+02 -4.219585351881094226e+01 5.668101329076004191e+01 4.361205342646311323e+01 3.555443874933543214e+01
1.668408485505949201e+01 6.812572509486312811e+01 5.226813898795483482e+01 -1.548384707381166692e+01 -4.197238653018816024e+01 6.017549640658116061e+01 2.971348819125034879e+01 2.335105251411852976e+02 -4.001982955600332303e+01 5.896171993140022494e+01 4.702016269420341388e+01 3.973643147569929823e+01
2.002243830127220647e+01 6.897373048794942463e+01 5.013143924216537073e+01 -1.243472494711119047e+01 -4.359910592831220555e+01 5.981168288258142951e+01 3.137165538446328483e+01 2.320184568769388420e+02 -4.250897528383778479e+01 5.655717337824508917e+01 4.804081989140166797e+01 4.111812345887305042e+01
2.674973487810907358e+01 7.131777669173597189e+01 4.537953366305586655e+01 -7.221127648585210501e+00 -4.833914090657003015e+01 5.907164811057630516e+01 3.291567109458997464e+01 2.315609782905859220e+02 -4.192554778923690861e+01 5.694208390837940925e+01 4.969915117563216711e+01 4.324253886760018162e+01
3.154371210960151828e+01 7.076532468103003737e+01 4.042283243559563033e+01 -2.466989047304477101e+00 -5.046845646076110370e+01 5.552113709840666900e+01 3.364030633030925088e+01 2.294667488103526409e+02 -4.503820120700002860e+01 5.469809459706789312e+01 4.784606252696379869e+01 4.273305858698457627e+01
3.453761287541239255e+01 6.896618026371483268e+01 3.520388956189286489e+01 1.669768556618838495e+00 -5.024012141103822415e+01 5.259339945888925172e+01 3.369926393992059133e+01 2.265938927274407888e+02 -4.645177301581426832e+01 5.418222329299536710e+01 4.709253299377731850e+01 4.216755347781091245e+01
3.184768708215835531e+01 6.275691156470673349e+01 3.219647212769639566e+01 2.095515475948798390e+00 -4.581245950696298053e+01 4.751386931749429721e+01 3.128022724730720583e+01 2.205014666565902814e+02 -5.081295879842922147e+01 5.161521568469524368e+01 4.411407184599740816e+01 3.838536802336365383e+01
2.710817755750339941e+01 5.945607537245033569e+01 3.244103413868924690e+01 3.316207794326475611e-01 -4.237693972033378742e+01 4.637190647463249604e+01 3.042250154139036411e+01 2.148304663806581516e+02 -5.269200809882919145e+01 5.122455766948326072e+01 4.234621458815755091e+01 3.679984020163793446e+01
2.083808277218718530e+01 5.643310210621329759e+01 3.562494377651954380e+01 -4.785563516016461350e+00 -3.840779591296216466e+01 4.614502431453065157e+01 2.906271007149970487e+01 2.094635555473905129e+02 -5.486745001344263528e+01 4.908493206657711028e+01 3.895196762232614418e+01 3.489261929147717467e+01
1.744363307480320913e+01 5.763707468054190031e+01 4.070331415474650072e+01 -8.854012758438784658e+00 -3.674530479938939465e+01 4.950943169940089206e+01 2.910073257252773260e+01 2.090122560977511057e+02 -5.331550795674485954e+01 5.085465941569962922e+01 3.808436167663575134e+01 3.458400276977357635e+01
1.334366699364381148e+01 5.634011781048008061e+01 4.444546898609462460e+01 -1.238681346565710761e+01 -3.500462114899467991e+01 5.061351977773554012e+01 2.836527291482044788e+01 2.093661584035808119e+02 -5.349967580126956079e+01 4.912378965704354528e+01 3.559713222698844248e+01 3.358824175347931629e+01
1.184382849267768023e+01 5.773058188661655521e+01 4.574783865762567814e+01 -1.441914704153177595e+01 -3.391251046823797566e+01 5.191274505099091385e+01 2.660786419241458134e+01 2.122616220632813224e+02 -4.970605918419769154e+01 5.146998472071508246e+01 3.646564031688853191e+01 3.430718534300906697e+01
9.832509653481871226e+00 5.560984641571352682e+01 4.677661592828565063e+01 -1.587714921049458816e+01 -3.182320279508866534e+01 5.199303729253680473e+01 2.513135081476227839e+01 2.144100975322343743e+02 -4.939039784383461296e+01 5.038066448097049488e+01 3.604621859915322801e+01 3.434284043076704762e+01
1.016325847689147466e+01 5.710599647632617604e+01 4.706019836012860935e+01 -1.665124827345389846e+01 -3.213188530680942279e+01 5.140129067274568797e+01 2.432102697232380351e+01 2.165215490535713059e+02 -4.577165342798122083e+01 5.165993745202954557e+01 3.893672414445567398e+01 3.543306373858311531e+01
1.144455790580461318e+01 5.771677586439610508e+01 4.699838225704856143e+01 -1.668967784800282317e+01 -3.355328021972920283e+01 5.126044872201381253e+01 2.438401071134249065e+01 2.178176127381168499e+02 -4.535541251086507941e+01 5.025761017757167792e+01 3.985607083127070638e+01 3.518084024931145848e+01
1.641600119768723687e+01 6.231404441223730828e+01 4.691890443590625637e+01 -1.435144408345316158e+01 -3.765663620379232412e+01 5.368310276052918795e+01 2.599883437869361202e+01 2.180176883842267728e+02 -4.180450305878495243e+01 5.284374136500240127e+01 4.358995073192063785e+01 3.719274658605267092e+01
1.814948997251632434e+01 6.474601626182328573e+01 4.771223810868849569e+01 -1.330429589031672144e+01 -3.961460207919125764e+01 5.514139389311216632e+01 2.641902799194323848e+01 2.186056282937634592e+02 -4.134096190179464259e+01 5.401341921568297977e+01 4.514426523975579642e+01 3.726007679819608853e+01
2.077531680042061879e+01 6.861906492908107680e+01 4.807349251307959292e+01 -1.286544528176976954e+01 -4.373614532913823894e+01 5.775037871984891069e+01 2.806435967493302996e+01 2.192213529122308842e+02 -3.781912007747594373e+01 5.628153166359440007e+01 4.716408576091303217e+01 3.913577573932465725e+01
2.150950626614891448e+01 7.003941265232774072e+01 4.851228990534212926e+01 -1.252216450688175797e+01 -4.436922935272803414e+01 5.852458280975170624e+01 2.773115607501677360e+01 2.188240553341301506e+02 -3.735158924849165629e+01 5.572674104814770146e+01 4.729634839612984365e+01 3.932798727355948643e+01
2.288035242695040594e+01 7.288885323575348707e+01 4.991015683175927364e+01 -1.162419055786505950e+01 -4.664562127183010887e+01 5.992505252486663636e+01 2.891145211145377658e+01 2.191433249024779855e+02 -3.377167021366940247e+01 5.509965020443610229e+01 4.862055292675795926e+01 4.056935252606852060e+01
2.410175903820935517e+01 7.332198807349739411e+01 4.995046456514442212e+01 -1.242751988956566755e+01 -4.814766756628770139e+01 6.046120012252532661e+01 2.888087985004957403e+01 2.189170338833819756e+02 -3.396074054460231650e+01 5.273035777549468150e+01 4.679677122359052532e+01 3.890308778123931432e+01
2.661974629949578031e+01 7.569128173719670372e+01 5.015390737019307466e+01 -1.049984800946333330e+01 -5.068114197129534659e+01 6.202464456343852106e+01 2.925604567972645498e+01 2.185126310748076435e+02 -3.156878866609257628e+01 5.267546918915730458e+01 4.740131451515448191e+01 3.872652512342237685e+01
2.925932846683979349e+01 7.663847526854999614e+01 4.834026446452347159e+01 -8.265969126252905141e+00 -5.214597661576358689e+01 6.135958295443978017e+01 2.761898743966450098e+01 2.171451942264032766e+02 -3.254471996336545203e+01 5.215360722640069469e+01 4.602545136146888893e+01 3.636025085312764560e+01
3.489234835593668294e+01 7.668348050090752110e+01 4.284300842979622104e+01 -3.430232257317433753e+00 -5.463894209151978032e+01 5.922746026809829090e+01 2.563315067871010555e+01 2.159257225541272476e+02 -3.193745844383239785e+01 5.305719909404863444e+01 4.558741239594790073e+01 3.430236888178971100e+01
3.861765111589171795e+01 7.503751141041399819e+01 3.683132127235178643e+01 1.429601362939823206e+00 -5.626363189764357031e+01 5.505740987007435194e+01 2.352912278160715331e+01 2.127609786512086316e+02 -3.498252817163382389e+01 5.068611425306005458e+01 4.404397835292239449e+01 3.047783749383567198e+01
4.250917049089260757e+01 7.346323050205759841e+01 3.059581697468284389e+01 6.120661608047778479e+00 -5.746010274724809364e+01 5.130543071777001529e+01 2.168843789813598022e+01 2.100102624744784237e+02 -3.586860051483345302e+01 5.028491797216432957e+01 4.301323298016411911e+01 2.880462253771577608e+01
4.379022122955770868e+01 6.937618857349596624e+01 2.664051876682999875e+01 8.487262845290274527e+00 -5.614584098289489589e+01 4.763782398262549123e+01 1.947219069974754646e+01 2.072891900792507727e+02 -3.791684809459962935e+01 4.747371444489278502e+01 4.018975748390313640e+01 2.690720985258570153e+01
4.252638802013465380e+01 6.747272504914155888e+01 2.452864033150031275e+01 9.300523578690910398e+00 -5.436759846431193921e+01 4.513051720087521090e+01 1.823686477126928907e+01 2.064517681376688643e+02 -3.551842976933131268e+01 4.861041983395571009e+01 3.948519177062342322e+01 2.713702480848603926e+01
3.782212988814720234e+01 6.276116285300512487e+01 2.376447778684923051e+01 8.253860065802873791e+00 -5.053092414163996438e+01 4.213569367242863706e+01 1.786552964011663391e+01 2.046717537518312895e+02 -3.670947631879891304e+01 4.740645509769127131e+01 3.869703903041924775e+01 2.747423429953404295e+01
3.468027628077159363e+01 6.023876540034806482e+01 2.459001304814249522e+01 6.390081275309249520e+00 -4.778999666331266383e+01 4.215095733208558215e+01 1.855945621401648182e+01 2.019392574921764947e+02 -3.464971035752145667e+01 4.853911061388628667e+01 3.870889367517970214e+01 2.824284989496462472e+01
2.871703858677436472e+01 5.653118969120419024e+01 2.736401456286756684e+01 1.390009356314318767e+00 -4.210409995911207659e+01 4.173062381464364279e+01 2.090410726699053967e+01 1.999699507492222494e+02 -3.562133376397605389e+01 4.799058015448640191e+01 3.742353177161202638e+01 2.890539171995859746e+01
2.292896373062252380e+01 5.477930310912982748e+01 3.265581871778967837e+01 -3.230446538374962540e+00 -3.848543757436605262e+01 4.330533249924987160e+01 2.415539407448644482e+01 2.000273693609524059e+02 -3.329608118793827742e+01 5.080840127109622273e+01 3.909036193444666196e+01 3.170477179706270832e+01
1.736633028499988640e+01 5.343982430594498823e+01 3.721964221815294849e+01 -9.285634036258555213e+00 -3.441446460158638843e+01 4.595480635956578652e+01 2.759252244850581093e+01 2.010334790744411180e+02 -3.151348424006299354e+01 5.301566718704741987e+01 3.922588776305583025e+01 3.416024934288020631e+01
1.203709264229979858e+01 5.505970056407144853e+01 4.325255821773993148e+01 -1.446671464427435794e+01 -3.300001097794145011e+01 4.915755629819778960e+01 3.137883045918686520e+01 2.037116040991451769e+02 -2.679022821331657056e+01 5.849563269761726758e+01 4.173831274290405702e+01 3.933751285753891835e+01
7.252300552182525450e+00 5.529216706879425658e+01 4.855691818805040327e+01 -1.903812944075867009e+01 -3.007164789384911785e+01 5.207878615318526982e+01 3.379792470758160050e+01 2.045703923506407307e+02 -2.415129439872916350e+01 6.055240479825381783e+01 4.245962622080941173e+01 4.170941724920117366e+01
6.472588021003232051e+00 5.713374193450228944e+01 5.195503855464224330e+01 -2.103370968770994764e+01 -3.078252212135054933e+01 5.400252454670949476e+01 3.694624212345962633e+01 2.053562517922174777e+02 -2.173861567944948092e+01 6.409929174370721228e+01 4.397972300034362547e+01 4.497548940712434984e+01
6.616507215843041578e+00 5.673453454555364317e+01 5.078847921155765022e+01 -1.983908345005804819e+01 -3.149501803045094661e+01 5.402317761274907326e+01 3.621413658837801819e+01 2.037032808609550898e+02 -2.223009135899132360e+01 6.420512433460012858e+01 4.391160695383720736e+01 4.482273815688729712e+01
1.114219473067847410e+01 5.682837278070878284e+01 4.765129402101676703e+01 -1.707340710652130156e+01 -3.293335880069486166e+01 5.245110207191245166e+01 3.558537781696055902e+01 2.005371211667139164e+02 -2.334574050311440274e+01 6.524034562835684881e+01 4.357075680648672034e+01 4.420846158371873003e+01
1.418369811996074148e+01 5.424514271723523251e+01 4.128188417771306007e+01 -1.228110782237835075e+01 -3.334209656042116876e+01 4.797945513558033070e+01 3.295503665937387439e+01 1.960240331387828974e+02 -2.768348154348696966e+01 6.132848736495964914e+01 4.213260214300625250e+01 4.058725832392715205e+01
2.084999169754150117e+01 5.354598017448171277e+01 3.429622376814010920e+01 -5.085735371536342697e+00 -3.603635927044348364e+01 4.457752988185762888e+01 3.002359756895952003e+01 1.924814859160595120e+02 -2.944812787917848951e+01 6.016674449012961645e+01 4.095179233536482855e+01 3.786559953959237390e+01
2.770224947051793407e+01 5.250341120941637740e+01 2.647912118992963926e+01 1.720411505397345664e+00 -3.954239181666925873e+01 3.985874462701443832e+01 2.680981607812221057e+01 1.880934732424304912e+02 -3.366339547985554503e+01 5.657812468620120683e+01 3.837677073654622006e+01 3.210805150672433683e+01
3.390887085205776685e+01 5.408829010635960799e+01 2.010747768804747437e+01 7.869790089603908356e+00 -4.349520559394079555e+01 3.775358403488026937e+01 2.460018345360057523e+01 1.839603029689217806e+02 -3.496307611812602545e+01 5.386513593058764116e+01 3.680924550785041305e+01 2.864975894676614132e+01
3.658751432531236958e+01 5.324837423928692459e+01 1.744514176023560026e+01 1.059681630537100538e+01 -4.414659441004688034e+01 3.538511977557056554e+01 2.314548154347620468e+01 1.781574216069067518e+02 -3.727463858794379803e+01 4.865917659296820830e+01 3.506866903811624780e+01 2.377212046779353471e+01
3.568982380767816665e+01 5.194716576565959798e+01 1.721638101842043511e+01 1.019061522349235105e+01 -4.290993895505309297e+01 3.491736115812919650e+01 2.251122100241002855e+01 1.751078721603590509e+02 -3.668699314274711298e+01 4.639603262664034133e+01 3.393951556626905841e+01 2.183489784214765450e+01
3.036269917743957691e+01 4.931646545687618755e+01 2.058228121081861417e+01 6.193397944313301373e+00 -3.996643874486834136e+01 3.550007401714190536e+01 2.106421316670710198e+01 1.716573497690909278e+02 -3.629097535029606547e+01 4.296796321240130823e+01 3.237337818206951567e+01 1.979945369473686156e+01
2.537183706566648311e+01 4.841901964605172282e+01 2.527365371858738641e+01 1.919742653501908425e+00 -3.638787900724666002e+01 3.732504352187794439e+01 2.114225073459814652e+01 1.707525546698643950e+02 -3.305982662122822546e+01 4.283998276346085987e+01 3.408679560461308711e+01 2.089743810464177542e+01
1.890456710454774480e+01 4.815764801636640868e+01 3.050486966857036109e+01 -3.712932508463134162e+00 -3.320592390146236994e+01 3.983266450564793359e+01 2.070793117485581192e+01 1.721863945829827856e+02 -3.221040049571231378e+01 4.073527473829990697e+01 3.420212467375405652e+01 2.133594886429671433e+01
1.687756777127915342e+01 5.108691407818917440e+01 3.516550518355199273e+01 -7.505520226603772826e+00 -3.293817933950646903e+01 4.366056793225502020e+01 2.239477334293389177e+01 1.744788463341049010e+02 -2.911128197825503605e+01 4.142376606443519194e+01 3.671308673385983923e+01 2.356903301413311880e+01
1.428694666606292252e+01 5.491193062881318099e+01 4.115401262495525003e+01 -1.196730246590342084e+01 -3.411422184872412799e+01 4.821504964748973521e+01 2.367810419255678056e+01 1.762553677706247868e+02 -2.817005603403040581e+01 4.095419777621081181e+01 3.740111318686557240e+01 2.503090542160248333e+01
1.361627511512108413e+01 6.084299185396326948e+01 4.632001559805353708e+01 -1.486697805804188377e+01 -3.598503729066345613e+01 5.350380132245823717e+01 2.521245511664593764e+01 1.779610905160944867e+02 -2.520115835578484820e+01 4.440240222752562715e+01 3.948306309436479467e+01 2.819259117534250336e+01
1.147743632347136256e+01 6.393209651941811700e+01 5.158084205815644907e+01 -1.825569841243089897e+01 -3.649513278261773763e+01 5.779031391114251903e+01 2.749856524068211172e+01 1.779338864044983950e+02 -2.357193788679704838e+01 4.655827598166463588e+01 4.117046638697119931e+01 3.078235642329505595e+01
9.917695616190174590e+00 6.621225480602906543e+01 5.458544860794043529e+01 -2.021134790918328150e+01 -3.682463147811216686e+01 6.063842907887574540e+01 2.822956347652867848e+01 1.776277290838986289e+02 -1.989420470196771262e+01 5.049636535145794625e+01 4.350237416979094007e+01 3.429093396182688736e+01
7.303829217436314636e+00 6.517495809683333619e+01 5.578941382791302317e+01 -2.259324397709372079e+01 -3.485778680303376120e+01 6.115915268218587642e+01 2.734733052158060218e+01 1.755440275986063625e+02 -1.991379156574943465e+01 5.247461468821364861e+01 4.522387446400514932e+01 3.624331397982129488e+01
6.988323025319266968e+00 6.445598356323829137e+01 5.550824161425035896e+01 -2.307330009837451357e+01 -3.527848044023721741e+01 6.029259640629111772e+01 2.585053550968241964e+01 1.738468793632980578e+02 -1.768112533493669858e+01 5.662724306407218933e+01 4.692465162475402707e+01 3.799159908201357894e+01
7.841210459837813396e+00 6.417382837667962292e+01 5.427846700297148885e+01 -2.257799213799406957e+01 -3.508240069388803306e+01 5.998199624459182644e+01 2.345218084973313921e+01 1.709931556496782719e+02 -1.851651052364322680e+01 5.738922045012719764e+01 4.748677719389786489e+01 3.789931777934750556e+01
1.183239704679833793e+01 6.617879443336066458e+01 5.286565626425745279e+01 -2.011731874392468100e+01 -3.832406037126133214e+01 5.939326016555335741e+01 2.239779350552363013e+01 1.680212816614336759e+02 -1.736579023013402434e+01 5.854869951422448082e+01 4.834805378231140338e+01 3.762833718423281937e+01
1.494539993298600500e+01 6.558979227582953797e+01 5.049334204179045571e+01 -1.687496610980571177e+01 -3.959370030037351995e+01 5.891067593992342211e+01 2.120371206358960592e+01 1.650574624206415706e+02 -1.962760859687734794e+01 5.698537892354596579e+01 4.726379466050605060e+01 3.606010247634559818e+01
1.768771050481660012e+01 6.702107008390939313e+01 4.929136246820657874e+01 -1.509590990646912090e+01 -4.087060237193327339e+01 5.845541230455614112e+01 2.094809986047556905e+01 1.614083066047747650e+02 -2.101083107081886681e+01 5.625721717167667890e+01 4.585573804800920783e+01 3.561668785075218580e+01
1.758814442610401230e+01 6.630356267588571484e+01 4.883174169643921658e+01 -1.494930842168926155e+01 -4.053466069251140880e+01 5.785555587231876018e+01 2.148145698025070160e+01 1.578572180797011413e+02 -2.314801925048953635e+01 5.303158588080862756e+01 4.408860880716947150e+01 3.404575095276449304e+01
1.514508338229551931e+01 6.498369831984864220e+01 4.960661420996277116e+01 -1.599102547498572768e+01 -3.819374063437636835e+01 5.751283500609792299e+01 2.291957343201409714e+01 1.550632997128556383e+02 -2.323718822956365315e+01 5.290319499508741075e+01 4.300480436808058471e+01 3.368446258583021802e+01
1.238971381397398908e+01 6.229462760760728912e+01 5.078281665718083104e+01 -1.870991352117320616e+01 -3.532090495355305393e+01 5.679606185559661213e+01 2.241446711491393273e+01 1.525673480796837964e+02 -2.458638987479152860e+01 5.017042323366526091e+01 4.089956131892895996e+01 3.149672618146349379e+01
1.173228673578243253e+01 6.202590145444815306e+01 5.058135114028067392e+01 -1.854187855878962665e+01 -3.486636261611862864e+01 5.658631958018820285e+01 2.132246840144632927e+01 1.502013459669373105e+02 -2.343655810226948333e+01 4.981706187615345982e+01 4.073974096917122978e+01 2.991809225631074298e+01
1.418741324087923417e+01 6.237778600413999897e+01 4.872653763610121302e+01 -1.629822834800217635e+01 -3.652077136080170305e+01 5.569662354760851741e+01 2.038242376836292635e+01 1.474507210090194462e+02 -2.457305333992926322e+01 4.724778257955013316e+01 3.895554487835709523e+01 2.739541438018807185e+01
1.895613258128241085e+01 6.400211838300369038e+01 4.616700104212538491e+01 -1.229179930643900320e+01 -4.046746408630087188e+01 5.578147101016354270e+01 1.883789827810857176e+01 1.453813160581508725e+02 -2.336979504645222505e+01 4.675202931370176884e+01 3.875079197348753723e+01 2.648245149774558982e+01
2.195322518268651280e+01 6.340502241776193415e+01 4.294479497268113732e+01 -8.895668395017603203e+00 -4.105052192352992080e+01 5.353493328352839598e+01 1.655451256164270291e+01 1.417532291655738845e+02 -2.516217485829868394e+01 4.432165243214045347e+01 3.687045394609585713e+01 2.514966044429405656e+01
2.358796846680980153e+01 6.143567308518599646e+01 4.010205044972487798e+01 -7.094514597821217627e+00 -4.061598052730246167e+01 5.136222942258704194e+01 1.485548151395064487e+01 1.392932612549741123e+02 -2.463423671341207921e+01 4.367610122007940987e+01 3.738352030491761724e+01 2.497879668077095516e+01
2.161804043664570329e+01 5.718825775614811135e+01 3.738865691435984928e+01 -6.961327007680717216e+00 -3.817680343511647578e+01 4.777624903599248540e+01 1.246502467467970376e+01 1.358494365619297923e+02 -2.537244030081917145e+01 4.142874066359739516e+01 3.602531120483264715e+01 2.552177095503648019e+01
1.888389749051300726e+01 5.368861004690516125e+01 3.693287929308613116e+01 -7.934042581673210748e+00 -3.447399445010400143e+01 4.526477003117378928e+01 1.148541649494000794e+01 1.327716347588924179e+02 -2.507082177163796288e+01 4.050407626412385298e+01 3.627412306701290845e+01 2.626708601798815934e+01
1.350757323222234874e+01 4.856553831571458346e+01 3.703408181705777480e+01 -1.111991706614094255e+01 -3.039013156129980686e+01 4.229311579130271070e+01 9.643370033051340329e+00 1.280203933005807926e+02 -2.726937943639734030e+01 3.917575257742370098e+01 3.512349129625773259e+01 2.580899764071046931e+01
8.967206573389805868e+00 4.484657861008938085e+01 3.693196461725234059e+01 -1.332736560700587702e+01 -2.627508477325862302e+01 4.152294357321748919e+01 8.308608461854859684e+00 1.252478425966805418e+02 -2.651705352328988141e+01 3.809244469449183867e+01 3.517862607564457278e+01 2.571550109501607650e+01
4.382561448639752832e+00 4.315253303205754776e+01 3.754227669203792317e+01 -1.480707628549388843e+01 -2.397476669974134111e+01 4.059747463994319361e+01 7.278816183927067307e+00 1.222190275031804561e+02 -2.761782203377768852e+01 3.528554524278027316e+01 3.423518941817185635e+01 2.397271097086916569e+01
4.086290715247000271e+00 4.285506890145590120e+01 3.872018910247211920e+01 -1.553886953776727431e+01 -2.401767821361692512e+01 4.185680564938947867e+01 7.313022887107317516e+00 1.221488694041278222e+02 -2.539752709326915792e+01 3.459549342259185067e+01 3.401759658010296761e+01 2.421704402961810132e+01
4.241386052624839920e+00 4.453198246460632959e+01 3.957708177224061785e+01 -1.630980324076467269e+01 -2.491873725959001717e+01 4.238568887502835025e+01 9.850900781614429391e+00 1.217405554744700709e+02 -2.414457404737614254e+01 3.345281778432181596e+01 3.388532900353916943e+01 2.370346340022861042e+01
6.910863159990738858e+00 4.863191076909816246e+01 4.071247878867538361e+01 -1.528200257016353625e+01 -2.797970360123879630e+01 4.430311971140271510e+01 1.298216137080096111e+01 1.227632157643020605e+02 -2.077708460519177081e+01 3.549801708789905774e+01 3.460166187298930396e+01 2.479476674095177202e+01
1.076864553158968540e+01 5.338499717307283277e+01 4.154365754551972145e+01 -1.401165783332601578e+01 -3.173967428870625085e+01 4.712869182894191056e+01 1.584796159775431512e+01 1.234651981126100395e+02 -1.841977815482534453e+01 3.695264225576404016e+01 3.566180785055222202e+01 2.540382810819717463e+01
1.710251442598364235e+01 6.111325974537423633e+01 4.314584541943315799e+01 -1.135756126415266998e+01 -3.851435174265366612e+01 5.240914682836162086e+01 1.941711502718634463e+01 1.248606112656126612e+02 -1.470422923671524096e+01 4.014273449238948643e+01 3.657583325508659300e+01 2.737205049745611873e+01
2.216553312616918348e+01 6.960765807107401315e+01 4.620634695940490388e+01 -1.097858299075516797e+01 -4.549167767929753836e+01 5.733101232112433365e+01 2.414604840576682321e+01 1.253401528357579195e+02 -1.250646390030871302e+01 4.220662243042355755e+01 3.819348893346383989e+01 2.911100245208593051e+01
2.606018355638374473e+01 7.842371768444127156e+01 5.216810538980391954e+01 -1.171436197698126414e+01 -5.159377201407045987e+01 6.529392039034314621e+01 2.920736269000100904e+01 1.274701994840135910e+02 -8.204325057485629458e+00 4.432927176972850702e+01 4.026137358975549319e+01 3.190815507860940059e+01
2.435152370257088705e+01 8.507917979586984814e+01 6.059062571434369460e+01 -1.662526962829808497e+01 -5.464023699029488057e+01 7.238719414458098811e+01 3.420870603290146050e+01 1.285570032346986409e+02 -4.681631654751710059e+00 4.672685523980815958e+01 4.282634192646496274e+01 3.492759267823397806e+01
1.964200449338841992e+01 8.875014907310026047e+01 6.989900513258012893e+01 -2.333790284019769246e+01 -5.412592256607710084e+01 7.924410821676703165e+01 3.874436553936155292e+01 1.298106462895835307e+02 -6.721015888932041493e-01 4.957951984551149849e+01 4.546476364245836521e+01 3.745359993612421334e+01
1.223259894492417743e+01 8.953246174810273317e+01 7.767956660486929366e+01 -3.062380379937469499e+01 -5.104987270766450536e+01 8.300438291030692994e+01 4.154621711012055130e+01 1.299955302643952848e+02 1.159005777663353776e+00 5.105919065948098989e+01 4.718065792204085795e+01 3.872775537748309205e+01
7.116723500580818040e+00 9.013764181461867508e+01 8.344090112453760355e+01 -3.645054306303586600e+01 -4.792517779931760202e+01 8.587428817021411476e+01 4.209698144763957828e+01 1.296562246526713977e+02 2.416162318261193764e+00 5.297652420069006496e+01 4.885566221831076916e+01 3.902283233943989416e+01
5.852250159849536004e+00 9.121002512292771769e+01 8.663859925006923390e+01 -3.927706253049981200e+01 -4.748803912375594649e+01 8.894829313890301137e+01 4.200367069227594641e+01 1.275657656112298355e+02 2.141178808976889947e+00 5.338814624183865476e+01 4.949791193867712735e+01 3.953866544365109092e+01
1.006794167819695929e+01 9.635415816438889181e+01 8.707574372005392149e+01 -3.730247064950590641e+01 -5.216518883510778437e+01 9.136516637625224746e+01 4.151919099421838411e+01 1.264548562318955902e+02 3.634977039745936445e+00 5.437559617356566122e+01 5.030021643974912848e+01 4.015920785208056287e+01
1.563659649657816786e+01 1.010101600718619324e+02 8.656437309426380011e+01 -3.352359883235056515e+01 -5.765181397084317183e+01 9.327733825177172378e+01 4.024050452018413182e+01 1.247509469343748520e+02 2.329417196105407761e+00 5.373149690256899191e+01 4.969059707156145578e+01 4.037099699804043951e+01
2.148971498278875814e+01 1.054139516298549779e+02 8.471873720944604713e+01 -2.987688293920451343e+01 -6.298666641265256771e+01 9.431624371977754606e+01 3.987609802912382406e+01 1.231884069719516930e+02 4.538950781657375977e+00 5.372799194906326647e+01 5.076904757507521992e+01 4.178627821525489594e+01
2.538857545002317195e+01 1.069595317920987867e+02 8.285595521827359278e+01 -2.738918494399502279e+01 -6.567878813633610946e+01 9.375145674490552494e+01 4.059044609897738809e+01 1.229548076206404090e+02 6.293069783899523095e+00 5.287692300703844950e+01 5.137984399710410344e+01 4.290503008500677851e+01
2.956097647436816800e+01 1.095777487547993729e+02 8.015660912505994418e+01 -2.337714819487736762e+01 -6.903981082441895012e+01 9.423302304345777713e+01 4.154600280331580109e+01 1.233607720226371356e+02 1.130773217902477867e+01 5.618362121713416713e+01 5.377103345471611817e+01 4.633034019633799971e+01
3.432822713447920648e+01 1.108378386711478498e+02 7.715758284614162221e+01 -1.972022082946759625e+01 -7.213427439068151159e+01 9.373859217468826444e+01 4.329746412683162049e+01 1.258593037189445027e+02 1.636155149017347554e+01 5.890576749675832247e+01 5.694044112377061140e+01 5.163517540093619829e+01
4.112244940736674437e+01 1.145497743551980108e+02 7.401455152506738955e+01 -1.476504359921051268e+01 -7.726108422571405754e+01 9.469475302877916079e+01 4.386955052551905965e+01 1.279459040258440155e+02 2.274308518815137603e+01 6.461689633736138205e+01 5.977841898444941648e+01 5.690543168623573678e+01
4.632639046690289319e+01 1.183864708537889783e+02 7.174044584687162285e+01 -1.051233965434197515e+01 -8.196395236918735350e+01 9.554444468441674587e+01 4.119272777506505889e+01 1.280191750329576905e+02 2.569297789078801486e+01 6.767309403888189934e+01 6.307588544415154530e+01 5.982110012743640226e+01
5.327115008534961760e+01 1.225754209155176113e+02 6.963935245813931374e+01 -6.405510318228569311e+00 -8.725446152441534764e+01 9.664710715587260381e+01 3.721541459367892912e+01 1.271494434583241429e+02 2.826464094155084084e+01 7.117974300930031006e+01 6.470801932890140051e+01 6.200296409952890286e+01
5.686682742159705839e+01 1.264812227464570498e+02 6.874805788137138052e+01 -3.397258493768998022e+00 -9.164623443094829724e+01 9.806636012513959599e+01 3.159636478260642889e+01 1.236171554385787346e+02 2.751859052657800220e+01 7.307528157056707130e+01 6.573182471396471271e+01 6.232061186741884029e+01
5.926878043276707331e+01 1.295813155708642057e+02 6.990266317952692532e+01 -3.699575980729151503e+00 -9.404950830831037933e+01 1.002922211831914296e+02 2.763314441326857462e+01 1.189761104201479895e+02 2.898584108597714248e+01 7.543144488845834417e+01 6.551411140854401083e+01 6.388193762548002752e+01
5.689314089007053354e+01 1.309617441532057853e+02 7.419452010030214240e+01 -7.938682233718361125e+00 -9.351537286893162104e+01 1.030424603306511244e+02 2.338931689490284427e+01 1.139860086839780280e+02 2.880045245546159194e+01 7.709513330240139339e+01 6.482044245300139096e+01 6.437443954998941820e+01
5.106017972582459663e+01 1.334862224957138324e+02 8.236212712132956426e+01 -1.396233246021276386e+01 -9.133672908524506795e+01 1.082483768675059537e+02 1.971585365099701903e+01 1.079010541198801008e+02 2.884570623169641834e+01 7.855794391113160202e+01 6.501516470483608146e+01 6.586242391554347364e+01
4.319403182524214913e+01 1.349562484483602702e+02 9.180098179984975104e+01 -2.217496844073272655e+01 -8.847793707864232715e+01 1.129445073662598276e+02 1.495044181807210926e+01 1.006734842673344446e+02 2.652721090723428787e+01 7.703267160871078545e+01 6.558007588042238467e+01 6.603330430727349665e+01
3.885778192380112728e+01 1.379138615698735464e+02 9.902917669824405777e+01 -2.841504241725359847e+01 -8.729965361413661640e+01 1.177913543692206559e+02 9.538267799422879278e+00 9.274839997245410927e+01 2.465763748288450330e+01 7.684764736802222274e+01 6.565536592577905139e+01 6.511540715611636188e+01
3.750184708153824431e+01 1.407752777056395814e+02 1.032967923621784507e+02 -3.165207115719560349e+01 -8.775681635336466968e+01 1.207624395811932487e+02 2.699735714804427644e+00 8.376071987883609893e+01 2.022303572197498411e+01 7.404713633980350096e+01 6.466371256456604044e+01 6.247147758562863373e+01
3.973821545916626974e+01 1.438172520981635500e+02 1.040477695358936785e+02 -3.156277220774510184e+01 -9.098776853433373901e+01 1.234949102324725629e+02 -4.303934834635829709e+00 7.629276480416811523e+01 1.726213172114175975e+01 7.132701239774809210e+01 6.524761306323634358e+01 6.141599533428326652e+01
4.291214553428402922e+01 1.473907697309300318e+02 1.045547675971395734e+02 -3.025187958557655321e+01 -9.375952592553881004e+01 1.249752657570891898e+02 -1.050735288666974832e+01 6.877212638856902061e+01 1.484635698889313993e+01 6.834055573978251630e+01 6.480735777298326639e+01 6.113948129083595973e+01
4.494945710331113276e+01 1.505826596328856226e+02 1.051044283995940276e+02 -2.995340881381718390e+01 -9.641112724071825824e+01 1.274742837462367220e+02 -1.342994896479958022e+01 6.457530295652962593e+01 1.561220958304016548e+01 6.799496063079250519e+01 6.512238237420102394e+01 6.382359243676245342e+01
4.519824442495240646e+01 1.516226955938350045e+02 1.051317414467884248e+02 -2.969274319109696592e+01 -9.816442764755446149e+01 1.286325104568885536e+02 -1.427988790549607501e+01 6.174862438906723838e+01 1.784184509628368787e+01 6.874307061610987546e+01 6.532001770727453049e+01 6.725231216282347191e+01
4.822405558341723264e+01 1.516886477687048114e+02 1.032037752334758522e+02 -2.697069703711976985e+01 -9.968976405565260279e+01 1.284539463328438558e+02 -1.327574683586708915e+01 6.243540706770283322e+01 2.296226107176440223e+01 7.211942606160977220e+01 6.688205108327495907e+01 7.120796775343286811e+01
5.332780817204015733e+01 1.502804578759687786e+02 9.695574583282362369e+01 -2.101257693432139817e+01 -1.014931571442934342e+02 1.239541543282930576e+02 -1.328308170355064810e+01 6.109373061116188097e+01 2.554904308914946753e+01 7.407690417882625411e+01 6.695935974538903679e+01 7.273536980474898428e+01
6.036183615427552951e+01 1.486244339397366616e+02 8.833816764573306557e+01 -1.319473497696188602e+01 -1.046125946162091509e+02 1.186927336214728257e+02 -1.575617678682683120e+01 6.084383164157457458e+01 2.834033601752416232e+01 7.607964337304970570e+01 6.667272332484289166e+01 7.231639454047399340e+01
6.668911220489742675e+01 1.445218842780530792e+02 7.764929474267542275e+01 -5.058950500245791737e+00 -1.055859589019198950e+02 1.116342657411041870e+02 -1.841111877339470482e+01 5.802202042507583002e+01 2.709611862287517070e+01 7.492088842123769155e+01 6.474963545751285210e+01 6.855563995741330530e+01
7.188769507671104009e+01 1.397945137747133515e+02 6.865102105808166755e+01 1.860830552684415995e+00 -1.053936984560276926e+02 1.049993940377489565e+02 -1.971315246253223208e+01 5.590662763381250500e+01 2.639059914914668425e+01 7.232353175870106554e+01 6.251925920892961130e+01 6.422832922414565360e+01
7.339400822811697367e+01 1.328086313220435954e+02 5.988522349749134577e+01 7.124116282298492919e+00 -1.015840780651367936e+02 9.717734079959873839e+01 -1.968392769558456123e+01 5.321333943329194227e+01 2.275587392286812971e+01 6.912663266868096912e+01 5.806917948996412093e+01 5.881098555462007482e+01
7.159052055777877399e+01 1.241988696670918841e+02 5.289006501962719398e+01 1.070441011700454048e+01 -9.648840586582021217e+01 8.888092461343678963e+01 -1.781243777795628347e+01 5.019817581669632744e+01 2.079030239423569171e+01 6.582555073019037195e+01 5.295881402867065901e+01 5.381458925105726365e+01
6.609945307504025891e+01 1.106103705911021535e+02 4.598051684331257860e+01 1.072327970803479857e+01 -8.674010285134612275e+01 7.892672102146525503e+01 -1.538883755204246029e+01 4.760979109831239953e+01 1.570468033102287642e+01 6.150142354194355221e+01 4.810251582580306717e+01 4.656481752471046320e+01
5.358309437220463423e+01 9.582880815218530302e+01 4.234556695808532822e+01 7.200293226085209497e+00 -7.353281872738936897e+01 6.943772614610453786e+01 -1.174588936963692021e+01 4.594816066611452499e+01 1.181002195639346475e+01 5.688256410005506325e+01 4.245096968855306585e+01 4.051956752896760605e+01
3.704708973453488596e+01 7.948836387845275908e+01 4.267094852576344977e+01 -1.754414468634121427e+00 -5.735768499664464315e+01 6.198229899819573063e+01 -6.642940820461472384e+00 4.403171904458772445e+01 7.659279128029332639e+00 4.997503704126144441e+01 3.683045915862664543e+01 3.421840135917348391e+01
1.837946691738988036e+01 6.635290937969425329e+01 4.715058456071613335e+01 -1.328006453571398637e+01 -4.103052059951348696e+01 5.747589039345826478e+01 -3.206834162970382818e-01 4.419439043245786536e+01 6.625363211220872905e+00 4.530033498553828508e+01 3.250263868004690693e+01 2.938820093893796681e+01
-1.281821445851512697e+00 5.389144549920165161e+01 5.482135913309864605e+01 -2.720813854837406609e+01 -2.500446526535120384e+01 5.499074010366258847e+01 5.603415476058517974e+00 4.340344225297538117e+01 5.035619113113919632e+00 3.963352860355409746e+01 2.922453982938579031e+01 2.661237865199759511e+01
-1.713823087977027981e+01 4.483179188126189274e+01 6.146921495599490015e+01 -3.809978144248969301e+01 -1.297049295831267202e+01 5.440888721643278814e+01 1.032030857125647394e+01 4.207030593504876492e+01 5.306243895527329890e+00 3.630049542666775153e+01 2.567200978153816138e+01 2.499236924381936475e+01
-2.975250780638903336e+01 3.543456110304291684e+01 6.452435042788036412e+01 -4.642259334222180200e+01 -1.961316196234299758e+00 5.047189768086999351e+01 1.160562738910731362e+01 3.921759456997341431e+01 3.856863631531913583e+00 3.271174076075038784e+01 2.246217852707431462e+01 2.229790041394650046e+01
-3.671835324069303397e+01 2.733067052022451193e+01 6.395267206969843699e+01 -4.872137870983836905e+01 4.914044598688206200e+00 4.654907926218745473e+01 1.181950370937606998e+01 3.585361515885134054e+01 1.469319226973417436e+00 2.820634986517598009e+01 2.112534065238511261e+01 1.876262636482580248e+01
-4.123483752157336113e+01 1.924977715017867652e+01 5.882175398796628230e+01 -4.930556496749536421e+01 1.200199577402238305e+01 3.970717167143363469e+01 9.672752973185160030e+00 3.146303003444366908e+01 -2.032239176062070829e+00 2.290635596155043530e+01 1.814019361346089099e+01 1.455359040970298068e+01
-4.302603703182134609e+01 1.121612668189758644e+01 5.438951571215806524e+01 -4.783376057504665368e+01 1.669969145654462395e+01 3.353227909056662526e+01 7.957200772326531890e+00 2.780824785547124733e+01 -4.145714584768759536e+00 1.850337669360779458e+01 1.535981993843992299e+01 1.101092896586873415e+01
-4.492307631606622920e+01 4.296156906179877666e+00 4.826885376807414474e+01 -4.597850247634158904e+01 2.187645611948791924e+01 2.738549205949172816e+01 5.781525159517435064e+00 2.354242632319746775e+01 -5.781914707018311894e+00 1.563638509526666098e+01 1.206981438509448523e+01 9.329368220678500023e+00
-4.502519265964241413e+01 -1.925000017739296299e+00 4.291879657150222727e+01 -4.292097006688921823e+01 2.404480505714277072e+01 2.126020433557845379e+01 3.089039044219077379e+00 1.938215967680304530e+01 -6.837635576581646113e+00 1.353734177639361036e+01 9.824517932433309397e+00 7.973841780445232175e+00
-4.352768445186858770e+01 -8.342060653963278227e+00 3.447855065116957718e+01 -3.741590772308479274e+01 2.606002024400914507e+01 1.315216743663218679e+01 -2.045230395648046873e+00 1.347691890396203362e+01 -9.385171552364068859e+00 1.004683866722511532e+01 7.786407209325768797e+00 5.875975606838866661e+00
-3.642916141596213464e+01 -1.271826569407463481e+01 2.330249313602789840e+01 -2.830489597780358579e+01 2.500704824746063792e+01 5.584470693562384014e+00 -7.206619470825172513e+00 7.052505385888821365e+00 -1.172752140534249854e+01 7.078402766816117797e+00 5.945299548781450838e+00 2.882952051616378686e+00
-2.752494860295868762e+01 -1.692923589156766084e+01 1.016700372972790767e+01 -1.775759199762398666e+01 2.196086211247079234e+01 -3.033386817608158648e+00 -1.341862649237429572e+01 6.109670650531462410e-01 -1.698838923061817852e+01 1.857441480278911428e+00 3.279398610960451599e+00 -1.006472365023108217e+00
-1.721864116505461340e+01 -1.677083826091354268e+01 -7.149420000832582556e-01 -6.675779590125374696e+00 1.743527468519149792e+01 -9.148325747200248159e+00 -1.670377501524787789e+01 -3.205831642120051228e+00 -1.850177239758419390e+01 -1.957745493003734572e+00 6.644028339975637243e-01 -3.660499384136843837e+00
-1.005357268995746090e+01 -1.687393789659386201e+01 -7.843102853304329436e+00 7.276598576150415942e-01 1.390226635318401094e+01 -1.268085961704407083e+01 -1.911858160101771276e+01 -6.349678585436509870e+00 -1.944719180942535530e+01 -3.770892124075616803e+00 -1.018619030851126039e+00 -5.967895641112716199e+00
-3.171301826190328299e+00 -1.468405953354289117e+01 -1.192932700484256969e+01 6.013693666076482813e+00 9.515095632130060821e+00 -1.286858480896929180e+01 -1.832960122652739443e+01 -5.091943101418474171e+00 -1.776783576688041322e+01 -4.497543036215190249e+00 -3.317232235932479956e+00 -6.322698539298492015e+00
2.085210562654237432e+00 -1.228925244678097961e+01 -1.471821647745956696e+01 1.036131412494332871e+01 5.473707476621157753e+00 -1.328809552487411949e+01 -1.721579100139425833e+01 -4.863574786061356292e+00 -1.598103164425575606e+01 -5.228380640983000482e+00 -4.644872378571300864e+00 -7.438763656930844625e+00
8.943201745013515946e+00 -6.733601729241577516e+00 -1.697121313431643941e+01 1.399343925364228269e+01 -2.265609431735037815e-01 -1.190998514102641259e+01 -1.413701216861828946e+01 -2.514555627048646436e+00 -1.373805089040998517e+01 -4.832164672171886721e+00 -5.139540717906612599e+00 -6.219995623893077585e+00
1.286166857020693399e+01 -2.906579055636741682e+00 -1.658929470170461329e+01 1.573824052843321830e+01 -4.222340434080595450e+00 -9.564378989740452752e+00 -1.106683980429840730e+01 -1.648715815321411871e+00 -1.157175994386166984e+01 -5.150500793148816037e+00 -4.945578152982041509e+00 -5.674352018627153882e+00
1.469318503786875318e+01 1.255413454483482738e+00 -1.422352274610996403e+01 1.554868196764003407e+01 -7.406604898815228211e+00 -5.502810185569674495e+00 -6.332709572219132887e+00 -9.149702240118469387e-02 -8.025716280453455198e+00 -4.557658212417345922e+00 -4.316699868316580257e+00 -3.806461589537879942e+00
1.159821133198094500e+01 2.108946522915552624e+00 -8.497028405031967324e+00 1.026895674078936338e+01 -5.282488256115722258e+00 -2.752554480677845028e+00 -3.409391304570098313e+00 -1.818574016723417397e-01 -5.525709122170494147e+00 -2.859023508458151230e+00 -1.348845769579680054e+00 -1.890924212171591900e+00
4.303004742836833429e+00 1.278032762773935183e+00 -2.726400084926787759e+00 2.918605335292435488e+00 -2.138429299918938931e+00 -8.400500737073387514e-01 -6.208894711460611893e-01 1.918906206206171805e-01 -1.791312067894085702e+00 -1.058061630013551024e+00 -9.178587891190415071e-01 -1.753959891847494124e-01
-5.491002392344337402e+00 -2.214472579328930824e+00 3.707968364716876408e+00 -4.009786261754660686e+00 3.818733125345642243e+00 7.683588449618554694e-01 2.071612308969641880e+00 4.650320645067073100e-01 3.209850356845647568e+00 2.317567865437931030e+00 2.363541197567004648e+00 -1.930658025453271809e-02
-1.374393565214782065e+01 -6.989248764564164773e+00 8.007722708514013021e+00 -1.055645709776547214e+01 1.142843120260127421e+01 7.164651887507139660e-01 8.209388955012238753e+00 4.215571780286307302e+00 8.725630632393480468e+00 4.915081584910911516e+00 5.296097530730652814e+00 3.756793830478870333e-02
-2.355825492894803830e+01 -1.447582127539782881e+01 9.847724739093782986e+00 -1.601672697290392833e+01 1.963109470840517545e+01 -1.488383134490954829e+00 1.050213099774512848e+01 6.254963520741349647e+00 1.231059988093157997e+01 5.500548561902740552e+00 6.778483939786286605e+00 -3.239662596178636833e-01
-3.113551735547500598e+01 -2.293362209529293239e+01 9.527580885572351832e+00 -1.990235799813626372e+01 2.775668111780959890e+01 -5.588626233723549497e+00 1.931708637328339506e+01 1.405683952293542127e+01 1.826124728338459846e+01 6.024906185242121737e+00 6.945328075814281021e+00 -2.264278335089299876e+00
-4.085025575752618465e+01 -3.249688400054449744e+01 8.478325011056874416e+00 -2.255119806435643781e+01 3.785739340597226743e+01 -1.136324724413657172e+01 2.157092495434922697e+01 1.958324608316310034e+01 2.270129420148021282e+01 6.689553508058580178e+00 7.074325606770296204e+00 -3.713926598506972709e+00
-4.875721335920534472e+01 -4.282783911872116533e+01 6.710539479453997203e+00 -2.564740060519412879e+01 4.617384109103097956e+01 -1.747818729677391758e+01 3.504477762206370528e+01 3.139171386260768770e+01 3.128675472461130269e+01 6.133995238836570607e+00 7.550237138124103353e+00 -8.010803284250352263e+00
-4.920605747257977214e+01 -4.687330485453857420e+01 1.905862989558359644e+00 -2.452388952296686142e+01 4.817397669494703649e+01 -2.256038291533489826e+01 5.421263306364432566e+01 5.197426500808065697e+01 4.431889443367606418e+01 9.585408356929535856e+00 1.137190774337429744e+01 -1.021364350130682475e+01
-4.294846892149952566e+01 -4.511123681418227704e+01 -4.487655028511019495e+00 -1.798694129184912072e+01 4.464040521958246188e+01 -2.518250227829558341e+01 7.726194844003241258e+01 7.624813594958050089e+01 6.531754302114465816e+01 2.258540324868994631e+01 1.617341312748547111e+01 -6.935514944212805233e+00
-3.289060577836546173e+01 -3.924234515826887559e+01 -5.602243195561946720e+00 -1.187872438706648737e+01 3.693728363026352923e+01 -2.241734212127213866e+01 9.661619919028471770e+01 1.030880304077682723e+02 8.884799117250553024e+01 4.040098570382347276e+01 2.993294448688852682e+01 3.830993192092475574e+00
-2.315220254480349027e+01 -2.522585069580432915e+01 -1.715254233172001541e+00 -8.192200493754143054e+00 2.581740136362611082e+01 -1.453889732542475244e+01 1.035997267308060543e+02 1.296838701986933984e+02 1.206874943133196894e+02 6.740977434082250852e+01 4.994911474275886576e+01 2.627179010774701595e+01
-1.441903927227854965e+01 -1.155931493362434104e+01 2.847783807164267156e+00 -5.422896815200192400e+00 1.353422829339653610e+01 -4.776200423151789387e+00 1.058818241080759321e+02 1.513889184908962591e+02 1.567572745810337551e+02 1.002057278970465148e+02 8.056879954937103605e+01 5.670699171341420453e+01
9.926025307242728468e-01 1.130756278015116578e+01 1.026983884732652008e+01 -1.967656202295972045e+00 -4.807954848314974328e+00 1.092208147627503578e+01 9.746949757706141781e+01 1.697114696864946382e+02 1.988262842167180224e+02 1.500490698986802727e+02 1.202676777023261820e+02 1.001671600616003133e+02
1.740868532464321561e+01 3.274290669802532250e+01 1.537529325352816123e+01 3.096694883274374366e+00 -2.587631986936016659e+01 2.394608873310825103e+01 7.749340329614268796e+01 1.725406138841213135e+02 2.387283994853999616e+02 2.018802348544995482e+02 1.725215673485290893e+02 1.489908184350122156e+02
3.815334442948262961e+01 5.669887296992796877e+01 1.881898531869686764e+01 1.065129414131070185e+01 -4.618359955318933885e+01 3.792118551640493962e+01 3.888835986201784323e+01 1.573710847842084775e+02 2.770241982273974486e+02 2.563649031594815710e+02 2.310614691733628661e+02 2.037067227117462096e+02
7.544417507148524749e+01 8.895962502922635906e+01 1.546660740596083095e+01 3.113033237907608708e+01 -8.093476606468780687e+01 5.175689818327290936e+01 -1.773328605599173002e+01 1.276588467388027368e+02 3.120698728100697963e+02 3.147793453802827912e+02 2.986096168633310981e+02 2.684771620181862204e+02
1.422544817303513014e+02 1.396291607150903928e+02 -1.632451014770031739e+00 7.273493528484097226e+01 -1.403465728075683785e+02 6.922297614891489559e+01 -1.018636856252338276e+02 7.513085890090513885e+01 3.436722869509876546e+02 3.865166034465816551e+02 3.733595857134268385e+02 3.525564664779591908e+02
2.228233183173101395e+02 2.055141452684969749e+02 -1.773664912347981826e+01 1.218945327809137069e+02 -2.131433296581568015e+02 9.520492968550664159e+01 -1.954776535602203751e+02 2.066382211270641989e+01 3.729832669094514586e+02 4.605736401510266660e+02 4.593131509403190194e+02 4.408670411543649266e+02
3.274772645125844974e+02 3.004475107207842370e+02 -2.624094095507631152e+01 1.789716396462736725e+02 -3.125762123892890259e+02 1.376781127914806859e+02 -2.981747861612637962e+02 -3.335105126976655043e+01 4.114410315030357879e+02 5.452496017469435401e+02 5.455263143018914889e+02 5.427870317610868369e+02
4.271537030204500525e+02 3.915838033708168382e+02 -3.506367207707076972e+01 2.328200364437133203e+02 -4.084926945468756116e+02 1.786724755618786844e+02 -3.985133870350579741e+02 -9.413267245788941295e+01 4.408337372150493820e+02 6.264743962490813374e+02 6.374541087103046948e+02 6.348961272500046107e+02
5.271560196182683740e+02 4.838772057032052771e+02 -4.311574925006863168e+01 2.867576672571555036e+02 -5.043285300971675156e+02 2.196438221392270407e+02 -4.987697905662234348e+02 -1.585284710407506168e+02 4.699703684368834615e+02 7.174729285797142211e+02 7.131958853774033287e+02 7.254630593045878868e+02
6.015648175847450148e+02 5.452746677918213436e+02 -5.435192380197984363e+01 3.301720736947497699e+02 -5.717344835674208525e+02 2.450288084977450751e+02 -5.869043318986890654e+02 -2.274406811485067976e+02 4.724003891763703109e+02 7.741467341056843452e+02 7.936846528976192303e+02 7.841397429967070138e+02
6.384449126882275323e+02 5.628054779756636208e+02 -7.423287805677519202e+01 3.581484739730714750e+02 -6.009615064337530157e+02 2.455073126226713498e+02 -6.648416327120779670e+02 -2.981669384922068957e+02 4.400822122638076053e+02 7.880605996057433913e+02 8.417760210009429329e+02 8.014861245935118177e+02
6.558186908410322076e+02 5.602208895929945811e+02 -9.463073897262071910e+01 3.774023576713910870e+02 -6.074284385618315127e+02 2.329009073358679416e+02 -7.252296176654973578e+02 -3.707592523077034912e+02 3.790661936826863325e+02 7.638548115419547457e+02 8.186150199461518469e+02 7.841160089387877861e+02
6.576004902015894231e+02 5.304312995995460369e+02 -1.265295502364378564e+02 3.940452949455984708e+02 -5.939393788973757182e+02 2.012847955096369503e+02 -7.622856674225051847e+02 -4.522992433397710670e+02 2.756226274439856638e+02 6.828728462683874341e+02 7.482656598748382066e+02 7.216943540321390174e+02
6.284895493507771107e+02 4.902822347318171410e+02 -1.389579444061944855e+02 3.866979041421138277e+02 -5.592841425968880458e+02 1.755842535858562314e+02 -7.808732526072629980e+02 -5.264638256181104907e+02 1.535783155666703976e+02 5.732121751120138242e+02 6.410694857078013911e+02 6.333594059606692781e+02
5.488000391429972069e+02 4.385343838827752165e+02 -1.108864976165773157e+02 3.312520752786672347e+02 -4.938444195697014720e+02 1.649140429093171178e+02 -7.771273595865343395e+02 -6.047324872473093365e+02 -5.405749635106524842e+00 4.089622106621924331e+02 4.951398392552977725e+02 4.992013050060888872e+02
4.524740578356261267e+02 3.799961750019924125e+02 -7.215147611986458287e+01 2.635581858410844234e+02 -4.156628559158133953e+02 1.541025791448224993e+02 -7.525889956211281060e+02 -6.560597332724501030e+02 -1.471356916957431622e+02 2.440216166014511998e+02 3.436758980899941207e+02 3.666558365920745359e+02
3.364033069221453047e+02 3.148516942751020906e+02 -2.194435359528397100e+01 1.810188471004078679e+02 -3.244918632608815301e+02 1.457648569511778760e+02 -6.922308945677548309e+02 -6.642288887894908385e+02 -2.566521168685816292e+02 8.360962113003112961e+01 2.063825570258671860e+02 2.461731006764583469e+02
2.298267521796406356e+02 2.483084572820914957e+02 1.944326680955625264e+01 1.082225703468211577e+02 -2.383418884944362333e+02 1.336375309588601397e+02 -6.218605860458762891e+02 -6.494618920284220849e+02 -3.412877487150872753e+02 -5.327143875799615813e+01 8.049876371017747090e+01 1.397035869779425070e+02
1.501079008557286443e+02 1.957394262557835702e+02 4.510978213635632983e+01 5.394104897366027274e+01 -1.725268180026554887e+02 1.206008570501150956e+02 -5.411980512267625727e+02 -6.068737077775591615e+02 -3.768971623329919112e+02 -1.393038497544808365e+02 -4.623830113546902432e+00 6.124595264352992530e+01
7.978973138344372273e+01 1.521065122664096805e+02 7.048262070174580174e+01 7.145974418675154816e+00 -1.153005946227484912e+02 1.109841775286420358e+02 -4.588881793560704523e+02 -5.513858117118446671e+02 -3.891552638783031739e+02 -2.010391465795424040e+02 -7.020293022078155332e+01 8.172680638055227487e-01
2.420266093523202855e+01 1.140680171862899357e+02 9.179089563628670589e+01 -3.279615866345323383e+01 -6.920089527892397996e+01 1.039524826613979513e+02 -3.795706911952535734e+02 -4.751778948698078580e+02 -3.644133904117587122e+02 -2.232868083857569559e+02 -9.803142929150605767e+01 -3.002871182064937727e+01
-1.572091435372274759e+01 9.418324118413218571e+01 1.106915609603565400e+02 -6.263307355594530890e+01 -3.951536777869188199e+01 1.032859637566623547e+02 -3.037456950274006431e+02 -3.940803974943186176e+02 -3.195654176778845681e+02 -2.178227371671954700e+02 -1.045296534668732420e+02 -3.989603791687401468e+01
-3.173602479005369048e+01 8.909691306423709989e+01 1.207915564319735466e+02 -7.480177179976433877e+01 -2.749409500010652962e+01 1.047703235931439139e+02 -2.351878705787429453e+02 -3.088024610278944806e+02 -2.546732219335000593e+02 -1.795922702350877955e+02 -8.181292583412812291e+01 -2.802678999806654403e+01
-3.440687792378967913e+01 8.724973793243978548e+01 1.214415884389191973e+02 -7.660289644857854796e+01 -2.615196114816378881e+01 1.039241972302505133e+02 -1.744107492760901152e+02 -2.242204088744903743e+02 -1.787631983103701714e+02 -1.247298170845938756e+02 -4.615305409850204654e+01 -3.134898410900801569e+00
-2.601312893531675385e+01 8.227415684792816819e+01 1.093811799713923847e+02 -6.571379995960606379e+01 -2.769270272907770902e+01 9.519085549895642373e+01 -1.285811462204576969e+02 -1.469071919780832900e+02 -1.031949874379248939e+02 -6.988269726516118396e+01 -2.904046715033888670e+00 2.524800919320022885e+01
