7.999999999999955946e+01 -3.000000000000009592e+01 -1.099999999999997016e+02 -2.499999999999992895e+01 9.599999999999970157e+01 -6.899999999999974420e+01 1.050000000000011937e+02 4.020000000000011369e+02 2.600000000000043343e+01 -5.999999999999964473e+01 -6.699999999999982947e+01 -6.700000000000028422e+01
6.639236876626031858e+01 -2.416985011776281311e+01 -8.956062005934458625e+01 -2.013712481272682808e+01 7.997605549373027145e+01 -5.586025029060716918e+01 8.469656693026915661e+01 3.350385235299515330e+02 1.249874897563597642e+01 -6.395146514897304968e+01 -6.607731748512327385e+01 -6.107755142856166941e+01
6.481565751294559163e+01 -1.661707662864847279e+01 -8.044559219558968266e+01 -2.107267381130032291e+01 7.413459452261092508e+01 -4.802783411633590305e+01 7.428414679976670243e+01 2.992987026173462368e+02 3.803479683829560809e+00 -6.572446270733948381e+01 -6.461527337138331006e+01 -5.571097018522191036e+01
6.505116261267563971e+01 -1.852114093517035442e+01 -8.157055263947353296e+01 -2.276383730873930133e+01 7.481750378006172753e+01 -5.004158154278113102e+01 7.482476814968964618e+01 2.930267852208526733e+02 -3.656971664413560585e+00 -7.611681463034886974e+01 -7.332425268402758434e+01 -5.739586151284047588e+01
7.083604757241475625e+01 -2.016612935743104629e+01 -8.997979524339433510e+01 -2.335995539633098161e+01 8.092368193981795343e+01 -5.458238893713113526e+01 7.217859518222654458e+01 2.918933790839421931e+02 -1.093951719921909671e+01 -8.534756074959838656e+01 -7.730851657503107788e+01 -6.123727614057599311e+01
7.102246875843484020e+01 -3.530738877992267533e+01 -1.053462322129961422e+02 -1.584972524453982423e+01 8.963024941869669249e+01 -7.078193957568964834e+01 7.383111955936057313e+01 2.969850526210320254e+02 -2.257150504989434481e+01 -1.000482602273846311e+02 -9.020166437578316732e+01 -7.622412353154800257e+01
7.578288317065670299e+01 -3.826723517227773641e+01 -1.130208917262728221e+02 -1.723181198243329959e+01 9.596998444607878298e+01 -7.572279548481924394e+01 7.311969379749933751e+01 2.969094330668144153e+02 -2.701202821431459355e+01 -1.054442312157141401e+02 -9.531353348126498304e+01 -7.933349012524593036e+01
7.704647240136017672e+01 -4.354576917499005617e+01 -1.205783926803396753e+02 -1.482232430930364231e+01 9.881435855857844786e+01 -8.102346747033212182e+01 7.396709232730351857e+01 2.927418363115734792e+02 -3.357232220990854188e+01 -1.112728832082018329e+02 -9.955220407402882188e+01 -8.545815647539225779e+01
7.705472589032613939e+01 -4.322538434987444589e+01 -1.193405885843096428e+02 -1.435573224734438824e+01 9.915073647312674154e+01 -8.173310725762736695e+01 6.752769773197438496e+01 2.682332493508699258e+02 -3.883145740740314977e+01 -1.106302815616444519e+02 -9.649447331819851570e+01 -8.340376331854447756e+01
7.324275082819632132e+01 -4.760848043333324142e+01 -1.206990242968148550e+02 -1.088401169789507072e+01 9.800902506638136913e+01 -8.513170863235261265e+01 5.849713200985427619e+01 2.398863751635327617e+02 -4.741596569013159979e+01 -1.105397231698108271e+02 -9.673962390956582169e+01 -8.843778267910687418e+01
6.845066860327703750e+01 -4.881113366079543425e+01 -1.183766438940539274e+02 -6.785478227117715200e+00 9.348000140391627610e+01 -8.464101172081876712e+01 4.581903160888006710e+01 2.056547473151977101e+02 -5.462304343935716133e+01 -1.084218519584449183e+02 -9.239534627661419108e+01 -8.639302674137972815e+01
6.033054062248099569e+01 -6.036553335052273894e+01 -1.188264851291542215e+02 2.024835009856805090e+00 8.904834986460177504e+01 -8.919874484619307964e+01 3.553510891282856221e+01 1.824308335279357891e+02 -6.347691707559986440e+01 -1.133013731270708604e+02 -9.646263702295982512e+01 -9.228848436429562696e+01
5.732849303613635783e+01 -5.666658707069332479e+01 -1.119521785217507102e+02 1.735107169784140257e+00 8.551152920058932239e+01 -8.326927216482171445e+01 2.829396700599614789e+01 1.680859239429877050e+02 -6.767185326149827063e+01 -1.133127946772788874e+02 -9.618065569362151734e+01 -9.058380862487955199e+01
5.296864903482308051e+01 -5.497549500395870581e+01 -1.059407286454852937e+02 2.413116273479877005e+00 8.101918831129667353e+01 -8.040050787822320899e+01 2.626576399235599268e+01 1.718333687754261518e+02 -7.549933606461405589e+01 -1.192389728610322237e+02 -1.015028230150741422e+02 -9.247667808297246950e+01
5.516736849198132120e+01 -5.020062398125211445e+01 -1.042592361477027794e+02 5.222676861137425242e-01 8.023516891872168344e+01 -7.684226290916581092e+01 2.126291098495208587e+01 1.734982796805704197e+02 -7.691872054694982808e+01 -1.192324942364662519e+02 -9.934287270092696076e+01 -8.965523293867350674e+01
5.012934717653987349e+01 -5.562157536209350184e+01 -1.048529273640540396e+02 4.306959444710042995e+00 7.886869435952827700e+01 -7.915933006152293672e+01 2.017780326063753904e+01 1.798886312416470616e+02 -8.243190531008725941e+01 -1.269921656913115129e+02 -1.026125810176315696e+02 -8.967699554681232144e+01
5.375388033809411326e+01 -4.978584810014615414e+01 -1.015617719389820621e+02 8.696979868959272553e-01 7.927420255641709446e+01 -7.610087300834969426e+01 1.945766062106144290e+01 1.781168287935289811e+02 -8.481743829989868289e+01 -1.273892614460872750e+02 -1.009837748568966305e+02 -8.650254890874469993e+01
5.051449370289614649e+01 -4.981992123944841921e+01 -9.916854550555503067e+01 1.466621712239027042e+00 7.534751698066746428e+01 -7.374243090449466820e+01 2.690587315604568630e+01 1.734728998550558003e+02 -9.037919969857038893e+01 -1.330278099832029568e+02 -1.092127142039600329e+02 -8.776517746572162082e+01
4.906501815635076014e+01 -4.385148450988551616e+01 -9.289911574765233127e+01 -2.222661354167527303e+00 7.235766625157404519e+01 -6.712386345890629968e+01 1.995234764853535125e+01 1.540859478752521454e+02 -9.359369008290559577e+01 -1.333402785052214199e+02 -1.074366018876023219e+02 -8.348817145570926357e+01
4.551182119010901772e+01 -4.292000339820544497e+01 -8.837429471518110802e+01 2.051879136783480717e-01 6.853940993391823611e+01 -6.659117718117714446e+01 1.475103760598023150e+01 1.339895799169531188e+02 -1.003329982629605013e+02 -1.390432318113439578e+02 -1.105998197236583991e+02 -8.655240856286063433e+01
4.244509887991122099e+01 -3.768197113446603197e+01 -8.105189649821338094e+01 -1.377237152470871084e+00 6.272405699918137856e+01 -6.027611156776010404e+01 3.341046741053195657e+00 1.058643745245739183e+02 -1.026796669848363024e+02 -1.369275507914343848e+02 -1.065660622660981147e+02 -8.190209562649494046e+01
3.819220713835160552e+01 -3.864095527403627273e+01 -7.707078910068786115e+01 2.067833065241670099e+00 5.910878395577611144e+01 -5.949463247722883352e+01 -1.701749567074162917e+00 8.631234196561344163e+01 -1.077143778675325052e+02 -1.374558940868653849e+02 -1.087638913315543050e+02 -8.171593726007411362e+01
3.831423368218185743e+01 -3.709540850826668645e+01 -7.439079328786837664e+01 1.536414452743945835e+00 5.743732873487957136e+01 -5.498228802123937697e+01 -9.369718025222674385e+00 7.157174544750388634e+01 -1.045260161660484499e+02 -1.324818242446357885e+02 -1.028648413832164437e+02 -7.768458619179398283e+01
3.409990342194858215e+01 -4.146880887085451661e+01 -7.541943304226694522e+01 4.355044620496251184e+00 5.569559722472416752e+01 -5.780389042539145095e+01 -1.925662476240634291e+01 7.289335134635487634e+01 -1.055696882861036840e+02 -1.286300386244074616e+02 -1.044349489861333211e+02 -7.944227223411056116e+01
3.825022834573749009e+01 -4.081974206030453445e+01 -7.920730358359075751e+01 1.638345868825909823e+00 6.017730722360022355e+01 -5.914823271452937092e+01 -1.926153397173767345e+01 7.031412248153115740e+01 -1.058817545334535737e+02 -1.295501180387231557e+02 -1.037762513763511123e+02 -7.818055824924158514e+01
4.063898652987663240e+01 -4.732056812576722393e+01 -8.699678306341994016e+01 5.166554614186797956e+00 6.535949829632568253e+01 -6.649415447056288997e+01 -8.816907130086683253e+00 7.013298046495968663e+01 -1.103733264515531545e+02 -1.379719318230979752e+02 -1.120455557473108712e+02 -8.321105650592895131e+01
4.533458812045952868e+01 -4.464489759391233292e+01 -8.981638573904244538e+01 1.380946444363100989e+00 6.866694408112684300e+01 -6.680196834520022264e+01 -8.810051822160392732e+00 6.885638981625803012e+01 -1.088659799630582796e+02 -1.352709819855330124e+02 -1.082572175564251751e+02 -8.016024820970388021e+01
4.696823602815315013e+01 -4.574431287178645533e+01 -9.205452223680642021e+01 2.702040845985926865e-01 7.004753272198109926e+01 -6.909519742230480688e+01 -8.471720586769480477e+00 6.765854974531568189e+01 -1.053872736053805426e+02 -1.322462469812908523e+02 -1.062234395053695692e+02 -7.799977193945439069e+01
4.530393224331208302e+01 -4.386548233269481045e+01 -8.779755674459758552e+01 1.545340866680081193e+00 6.774827811290175816e+01 -6.697514699682861306e+01 -1.718193756028842500e+01 5.125612483413618037e+01 -1.028531718018873704e+02 -1.260096487292707792e+02 -9.909598900365016050e+01 -7.380703709226354192e+01
3.527628142651470711e+01 -5.000755691904839040e+01 -8.626209134640845377e+01 1.039539782962695114e+01 6.298999715987658732e+01 -6.822348214240936670e+01 -2.549734385089463018e+01 3.122428944887114355e+01 -1.066359588718037230e+02 -1.259219577383890822e+02 -9.908142554511084654e+01 -7.250965605096219235e+01
2.971885706683658412e+01 -5.208324461124929172e+01 -8.111334504750246310e+01 1.341885091960858922e+01 5.559554367397296204e+01 -6.656602929259510404e+01 -3.570897472929570426e+01 6.547210754932058840e+00 -1.044891556559273909e+02 -1.196317663703351286e+02 -9.085722972142914955e+01 -6.444465373088674198e+01
1.741245999633391861e+01 -6.117490933143027831e+01 -7.824259857059581691e+01 2.334108761248650055e+01 4.862895447586891606e+01 -7.009118817482840313e+01 -3.847244115796960529e+01 -9.857337999659320005e+00 -1.055582438274655601e+02 -1.149198194803948638e+02 -8.665538209657243840e+01 -6.145841462637967823e+01
1.789347074264999904e+01 -5.787645122953293253e+01 -7.533420408089649811e+01 2.159646087267370973e+01 4.691869118963736440e+01 -6.721834304815828887e+01 -4.672602846457804304e+01 -2.674403654782014428e+01 -1.057756428718917618e+02 -1.055011094579894859e+02 -7.759329782504602235e+01 -5.563332831410857438e+01
2.133297938510079206e+01 -5.765528655118364298e+01 -7.666438314369924001e+01 1.915466285454736095e+01 4.917433613709760465e+01 -6.685460762971783311e+01 -5.511074159594527799e+01 -3.466608869953348204e+01 -1.095766432585762402e+02 -1.041311165166729751e+02 -7.613246067131525763e+01 -5.768316971831466589e+01
2.752897398168306253e+01 -4.729814879949366002e+01 -7.543465236922499173e+01 1.131362654676664370e+01 5.256013045250055171e+01 -6.069101918148454899e+01 -5.882528410724692947e+01 -4.012626310798780338e+01 -1.063877937478471409e+02 -9.693863108626865710e+01 -6.879137664187797441e+01 -5.391901389688850799e+01
3.350951516720947154e+01 -4.187987645405508630e+01 -7.517591403405583605e+01 5.664278356490328292e+00 5.531044654479716627e+01 -5.895459111655158324e+01 -5.792423008930914108e+01 -3.771090848595159173e+01 -1.017438352865238045e+02 -9.255188407372320114e+01 -6.617298567270829324e+01 -5.326936535247424587e+01
4.064816498315282445e+01 -3.471358906056136817e+01 -7.235275947829860854e+01 -1.076687217412216402e+00 5.648819454241826321e+01 -5.330948085405075432e+01 -6.101697912815401281e+01 -4.214969474458337828e+01 -9.801883714780460366e+01 -8.739690237014505669e+01 -6.145283253839589577e+01 -4.975887900260534735e+01
3.818928825864150411e+01 -3.693435917489694731e+01 -7.364198536323310407e+01 1.426017030494632021e+00 5.532799200443414378e+01 -5.432094285393613120e+01 -6.603905755875544514e+01 -4.598178663714673320e+01 -1.012891298968179967e+02 -9.054864214594296357e+01 -6.595489039718894730e+01 -5.488319766254394239e+01
4.415323075976660050e+01 -3.008475517645909036e+01 -7.355716389190720861e+01 -5.101692915438401421e+00 6.046710345357837468e+01 -5.101740416651882271e+01 -7.628447734072133812e+01 -5.776728176551097249e+01 -1.017931294678557066e+02 -8.857294338254925492e+01 -6.384541002115655317e+01 -4.902202644463719849e+01
5.512867832265778389e+01 -2.572339701914440013e+01 -7.880983854980790682e+01 -1.227035815004128949e+01 6.745856597955202005e+01 -5.319793100257719942e+01 -8.197246223325474546e+01 -6.602408886255848586e+01 -1.052742422135857652e+02 -9.664863956131763700e+01 -6.614152800776234642e+01 -5.078267235293257187e+01
5.921541566275519131e+01 -2.144998058151832154e+01 -8.012035389335810009e+01 -1.699706691431331862e+01 7.076359541212734428e+01 -4.991726980091348764e+01 -9.357686273709424540e+01 -8.341120012441257359e+01 -1.063324360118950409e+02 -9.358791439920608468e+01 -6.451673168921634272e+01 -4.531537562934090602e+01
5.228043440314168322e+01 -2.900542745428383995e+01 -8.167871001725174551e+01 -1.051612408126797860e+01 6.701114325724952892e+01 -5.479949892240671971e+01 -9.985049065691976011e+01 -1.002190848605954301e+02 -1.119355478089662626e+02 -9.339205030748473746e+01 -6.738526386184088324e+01 -4.637632853234811137e+01
5.765382617785213881e+01 -2.491442884064752761e+01 -8.089302547621804251e+01 -1.340425691117727069e+01 7.042981785559996410e+01 -5.487403289115270866e+01 -1.048685252137300523e+02 -1.130458034944270480e+02 -1.122783360688437284e+02 -9.140019612292273621e+01 -6.407312617966138646e+01 -4.370266490365334988e+01
6.458329165737183075e+01 -2.169560902620250076e+01 -8.477010029713511585e+01 -1.995265824719454173e+01 7.593890531300094437e+01 -5.315743566370810669e+01 -1.021608385507446854e+02 -1.128091784291379724e+02 -1.136265680839294703e+02 -9.500714801524148356e+01 -6.530384428654274132e+01 -4.620950549962991971e+01
6.835817713597234047e+01 -1.735292237825726147e+01 -8.573721028960197543e+01 -2.403672458138441925e+01 7.792696250794310231e+01 -5.255437907618095750e+01 -1.068269903412916335e+02 -1.172790477472412931e+02 -1.134333956934138996e+02 -9.407719205907788762e+01 -6.401185432228422201e+01 -4.494844919802287819e+01
5.787338113336615919e+01 -2.651676340769806473e+01 -8.362727607486496595e+01 -1.360067470595402384e+01 7.183658851136603118e+01 -5.492180261846536382e+01 -1.131784032792358801e+02 -1.235497582056679562e+02 -1.192068129314112781e+02 -9.884151113778521847e+01 -6.886066905002458327e+01 -5.055131599527457809e+01
5.293210613247819651e+01 -2.960256697749451504e+01 -8.147153057900504791e+01 -1.105833970879892370e+01 6.784570986771355194e+01 -5.496722624063817619e+01 -1.218889302359698661e+02 -1.332978518784548214e+02 -1.231061834832159860e+02 -9.805630928785484457e+01 -6.762956018013757387e+01 -4.983929325662636245e+01
5.170725132094447218e+01 -3.526080703899892654e+01 -8.594854206676025399e+01 -5.727176246279062966e+00 6.942864685524257595e+01 -6.007446423656351442e+01 -1.267590510809401962e+02 -1.378776927672175532e+02 -1.279545171604348326e+02 -1.029005291826487394e+02 -6.911260971772968276e+01 -5.080686380314813277e+01
4.787308832640828626e+01 -3.989263850117682608e+01 -8.738141468508862886e+01 -2.991198805894201840e+00 6.995660347503924470e+01 -6.350340559445108823e+01 -1.327672228553426805e+02 -1.475965918326851352e+02 -1.303510913583283468e+02 -1.013075552020819572e+02 -6.447501838264341245e+01 -4.755928588780326294e+01
3.658095649716549502e+01 -5.493200976114412981e+01 -9.181069701369965230e+01 9.894389434400119754e+00 6.571904759272598540e+01 -7.341010561619678754e+01 -1.339744048723398180e+02 -1.543964651262109555e+02 -1.390064877921075208e+02 -1.062514533588350645e+02 -6.928384617543122204e+01 -5.068472236028218703e+01
3.610560688267593576e+01 -5.879824568419896735e+01 -9.398471440331164217e+01 1.212657476280997493e+01 6.605504238144990836e+01 -7.636372412093771800e+01 -1.356696440706416524e+02 -1.646139470916103562e+02 -1.415763391891848926e+02 -1.069109361307749140e+02 -6.984584257411921726e+01 -5.205498201092716215e+01
3.159761993634204913e+01 -6.826310056747655608e+01 -9.952908073883007489e+01 1.897433562398483531e+01 6.801515315806354067e+01 -8.416794121690639940e+01 -1.355020481016223641e+02 -1.712430782467929760e+02 -1.462616050086018333e+02 -1.123037751192491669e+02 -7.542254071232403589e+01 -5.865182834674253343e+01
3.053473378758220136e+01 -7.187717049586973417e+01 -1.025275000638906988e+02 2.214225951323692954e+01 6.843570237266638401e+01 -8.815069661696176695e+01 -1.386532571578264026e+02 -1.810819717670736964e+02 -1.492444182599558360e+02 -1.128314868719660353e+02 -7.514787814694854262e+01 -5.920223102918783553e+01
2.954202896803558787e+01 -7.988354027640281174e+01 -1.093969065876301556e+02 2.698347315191992024e+01 7.039154622591648547e+01 -9.559591493173202537e+01 -1.381845563958600565e+02 -1.856699759433289501e+02 -1.537599692280344073e+02 -1.183041132431106490e+02 -8.014183067920504300e+01 -6.564140958330462183e+01
2.992423615847102170e+01 -8.193465753343431857e+01 -1.113711161672030840e+02 2.756819761548895542e+01 7.238714467958654097e+01 -9.775974815550202379e+01 -1.435683967964225474e+02 -1.938592804518453079e+02 -1.553176574693698058e+02 -1.187436135130340205e+02 -8.091940017435200616e+01 -6.600845489087760143e+01
2.824087374487276847e+01 -8.942501510834149769e+01 -1.157654075202742661e+02 3.113843466607233523e+01 7.377348774421631106e+01 -1.031612591773487679e+02 -1.456380960389301435e+02 -1.953665881572190983e+02 -1.597530178085997363e+02 -1.244000754927985923e+02 -8.610212140975031048e+01 -7.337720508830797428e+01
2.974823918756048968e+01 -8.850309520474252167e+01 -1.167616774525412495e+02 3.164122528446558036e+01 7.464705476116093052e+01 -1.034709961115924557e+02 -1.532444761021607462e+02 -2.025685079240349182e+02 -1.611898125745728407e+02 -1.236002225403967856e+02 -8.700843337788704446e+01 -7.347763856352450773e+01
2.820233854865138667e+01 -9.101341945586108295e+01 -1.191308463370271085e+02 3.358263744767270964e+01 7.518452448859828507e+01 -1.058571639186636162e+02 -1.588764977616785927e+02 -2.044161471267006505e+02 -1.663123459877314758e+02 -1.267884945378158932e+02 -9.095878868363212177e+01 -7.956461002640067193e+01
3.033409335284413899e+01 -8.570162545756132033e+01 -1.149276005349240108e+02 2.968499353644085659e+01 7.445849717135902779e+01 -1.004305637172722072e+02 -1.678671416998364521e+02 -2.118937317931566611e+02 -1.688141351082680615e+02 -1.254813756117947037e+02 -8.944570173921175638e+01 -7.886318986651545515e+01
2.911620582478368391e+01 -8.585981620195457253e+01 -1.124403702048601161e+02 3.008226928019466584e+01 7.230604368877004617e+01 -9.882351110903047697e+01 -1.740536420754412177e+02 -2.157012769019170833e+02 -1.753280410245452856e+02 -1.292175370127574183e+02 -9.274220210482579319e+01 -8.383321708155111196e+01
2.727457450061710276e+01 -8.237503608968025048e+01 -1.086613111303056201e+02 2.892468375003824832e+01 6.885895366702474973e+01 -9.517065339750689645e+01 -1.815649421425335674e+02 -2.251142608791877251e+02 -1.807807386531530369e+02 -1.302637692175958932e+02 -9.246502793230274619e+01 -8.220170727482209827e+01
2.126927748426299303e+01 -8.647098181826125085e+01 -1.064400172151400312e+02 3.447044850546913608e+01 6.637609444312428764e+01 -9.693690793960070096e+01 -1.857310197995442707e+02 -2.300605151728292128e+02 -1.892317031086019483e+02 -1.368033331126025587e+02 -9.876432708204417565e+01 -8.662062094359113473e+01
1.727290830589876336e+01 -8.645544716404334906e+01 -1.036296225275345506e+02 3.657560491729414309e+01 6.224891146117278851e+01 -9.546199782972662717e+01 -1.907136557388260485e+02 -2.377106495493841010e+02 -1.937531711334446243e+02 -1.382486843744807743e+02 -9.994854599150163210e+01 -8.541028289604238921e+01
1.281620621566057139e+01 -9.229421317948865067e+01 -1.048265291320054473e+02 4.206668978545881998e+01 6.008572559207210162e+01 -9.918968366311993634e+01 -1.920863656241451736e+02 -2.409005551172045614e+02 -1.991115845386829903e+02 -1.448188731678368981e+02 -1.038805373324871653e+02 -8.888220599184298010e+01
1.260897638620273042e+01 -9.271077292589970398e+01 -1.063283444649897831e+02 4.215139419844425106e+01 5.997119772297305929e+01 -9.963123108476116840e+01 -1.966395064911957320e+02 -2.457264710156928516e+02 -2.019160636040755605e+02 -1.456556479421251140e+02 -1.028749955071622537e+02 -8.736316679644500027e+01
8.932646452683320248e+00 -1.015456102859491949e+02 -1.101182295177284374e+02 4.719565541877387460e+01 6.043299558011864292e+01 -1.058577123917393266e+02 -1.980142324444170470e+02 -2.468994096002608103e+02 -2.065220025793701950e+02 -1.514951105219656711e+02 -1.074961563910948712e+02 -9.079145874850595987e+01
9.026751066156682768e+00 -1.053978326067201010e+02 -1.139299466898422963e+02 4.961160769512548541e+01 6.215187594148115835e+01 -1.095900585921370975e+02 -2.027292205940741212e+02 -2.522120982671257252e+02 -2.085820696555068139e+02 -1.533556825597414104e+02 -1.073288967927164492e+02 -9.025530528246609663e+01
6.799186211116873046e+00 -1.143441839909399960e+02 -1.206911448821639539e+02 5.520100845215742424e+01 6.430237796497128500e+01 -1.176504587579075718e+02 -2.033348956789985209e+02 -2.545013314482873739e+02 -2.142063750647523079e+02 -1.591088822844472190e+02 -1.137291106284312292e+02 -9.636370795293179015e+01
6.569565206572138827e+00 -1.186051351224044339e+02 -1.245280721916116988e+02 5.765547323091858090e+01 6.561998949897795796e+01 -1.211690561854315575e+02 -2.079974864624438737e+02 -2.607437617587871159e+02 -2.165559835078032052e+02 -1.590754351165859362e+02 -1.142638014089054508e+02 -9.575284685045959066e+01
3.438371942620045196e+00 -1.257926238116687045e+02 -1.290450119991728855e+02 6.226750910690716267e+01 6.701725042883612105e+01 -1.270058258248789826e+02 -2.101710680925378369e+02 -2.639957461299757142e+02 -2.222229717318357132e+02 -1.633220252251003615e+02 -1.176996278802294142e+02 -1.011038660780902916e+02
5.096497251718094645e+00 -1.261853231117738972e+02 -1.298501226575467058e+02 6.183551484386271113e+01 6.922731751817408963e+01 -1.271461722013779791e+02 -2.145711879819626517e+02 -2.717607456864695337e+02 -2.240276851327257930e+02 -1.629954202304254238e+02 -1.169327985785593000e+02 -1.009305876578313956e+02
5.409292631927102413e+00 -1.297772266057172885e+02 -1.344974982356893634e+02 6.354323663554990276e+01 7.151511525231229882e+01 -1.312114809783063549e+02 -2.146181413547302839e+02 -2.764733824923171710e+02 -2.285411941007731400e+02 -1.673428871531448863e+02 -1.209321910474303507e+02 -1.055079320783308106e+02
8.854223713791311567e+00 -1.283987172454921222e+02 -1.360525509017678303e+02 6.035300896916227487e+01 7.456271110643199052e+01 -1.310080010863224800e+02 -2.159470785046514720e+02 -2.823359934173143415e+02 -2.294578272634298628e+02 -1.668944886822906426e+02 -1.195516179189509955e+02 -1.042889229634802888e+02
9.202379019360583001e+00 -1.319546879739550604e+02 -1.398804099895524189e+02 6.206963721229806197e+01 7.531133936676933160e+01 -1.356833164416550233e+02 -2.157104508565438721e+02 -2.863499530698323383e+02 -2.331678278801762190e+02 -1.717464076231328534e+02 -1.254439014697836399e+02 -1.086395783716579899e+02
9.503194710096344977e+00 -1.333960699605570994e+02 -1.408098586862242030e+02 6.348648389832894878e+01 7.700417616034765445e+01 -1.365284623283701819e+02 -2.166064277033339351e+02 -2.918559499742693220e+02 -2.358516052803623779e+02 -1.728530196156018235e+02 -1.269280993859955231e+02 -1.096680529918192519e+02
3.926814436057053825e+00 -1.412640335319329381e+02 -1.454240689428284838e+02 7.093724421674278346e+01 7.588764638790425465e+01 -1.426053930155747196e+02 -2.185411746074897792e+02 -2.949703931210332257e+02 -2.427304977645180202e+02 -1.803103605216172696e+02 -1.339180099368804520e+02 -1.145827059123407707e+02
1.714172772249997534e+00 -1.461932792999411106e+02 -1.469815397784106494e+02 7.355963780190896273e+01 7.479548912294312402e+01 -1.454207188812762865e+02 -2.237391077412776497e+02 -3.014921495591351004e+02 -2.452916285951648092e+02 -1.841811385746223664e+02 -1.364591890219040522e+02 -1.164737837571236838e+02
-4.156977195728400076e+00 -1.553303784357235884e+02 -1.505601352064004459e+02 8.094776041841345204e+01 7.478447935300481220e+01 -1.510215608652972037e+02 -2.269312182891802365e+02 -3.048826126309483016e+02 -2.518505815079010119e+02 -1.924021359606078079e+02 -1.443879802504693828e+02 -1.235082743331947910e+02
-5.394954136305341486e+00 -1.569666323465003472e+02 -1.495647342013208174e+02 8.271463032414224870e+01 7.281264980076544191e+01 -1.529537166538451913e+02 -2.335345083458680620e+02 -3.118934747332143615e+02 -2.561585722885873793e+02 -1.956929686662652728e+02 -1.476641621717329542e+02 -1.248899616868689293e+02
-8.954386730593533628e+00 -1.622835719032330530e+02 -1.525795112571998970e+02 8.737868252065555907e+01 7.170529144741846039e+01 -1.566839085098105215e+02 -2.357310427426904766e+02 -3.160310638648450094e+02 -2.619457948950371815e+02 -2.023819229680422325e+02 -1.544534561674668396e+02 -1.310116141913026127e+02
-7.859939864048701708e+00 -1.593146420221203812e+02 -1.507223816015410591e+02 8.539823698298786780e+01 7.254756837410006653e+01 -1.547557606364068192e+02 -2.385490775640562902e+02 -3.226605303282348700e+02 -2.638899106840256650e+02 -2.034620711905276664e+02 -1.550738129417049151e+02 -1.309045167132450729e+02
-5.567093765161067687e+00 -1.600482141940533438e+02 -1.519780595543480786e+02 8.445344308862786420e+01 7.372353203665404919e+01 -1.552609047792286958e+02 -2.391018211486352811e+02 -3.271489224739708561e+02 -2.683412604469813800e+02 -2.087928655929251249e+02 -1.591199094956794795e+02 -1.348429048128441252e+02
-3.843764173736569645e-01 -1.536339112396902635e+02 -1.519405010066670343e+02 7.876648521556555238e+01 7.669220180975720780e+01 -1.527210740189787828e+02 -2.413306839366782981e+02 -3.331097494062948954e+02 -2.693240310117841432e+02 -2.085710138294906528e+02 -1.585938220360537514e+02 -1.332695991647046014e+02
2.541800263239504698e+00 -1.525182640975575055e+02 -1.541109211517637618e+02 7.576047558452289366e+01 7.893885241724775881e+01 -1.531870588406181355e+02 -2.425578455179183379e+02 -3.365448146467307993e+02 -2.731298790538248227e+02 -2.118715040995396066e+02 -1.614231069125951876e+02 -1.363885102691947964e+02
6.608172548331944007e+00 -1.483463954110657141e+02 -1.538732085528284870e+02 7.307681005141635922e+01 8.126884765308611236e+01 -1.514367281249695338e+02 -2.460701414651599350e+02 -3.419178459745274949e+02 -2.744712362180763989e+02 -2.118152527256667668e+02 -1.609055635324084506e+02 -1.339175356384166662e+02
4.899372048478342734e+00 -1.518111192797265403e+02 -1.561237229895239693e+02 7.478360598898454725e+01 8.171934852452267251e+01 -1.544617195596774195e+02 -2.498603353808641145e+02 -3.453253286626139129e+02 -2.778268186974634091e+02 -2.138492641141660044e+02 -1.647498102830863900e+02 -1.383481660278879417e+02
5.158368401071853349e+00 -1.504321816631886577e+02 -1.558654500200989048e+02 7.356271148422449357e+01 8.074362125876726282e+01 -1.535719026275371277e+02 -2.537139260003657455e+02 -3.489962278652312193e+02 -2.803899732473904010e+02 -2.127817828620353851e+02 -1.632339842554065683e+02 -1.375125119181248294e+02
2.886293178514861335e+00 -1.555530787440819438e+02 -1.578741716438574088e+02 7.629393345979518415e+01 8.119360566483638308e+01 -1.561154715621960349e+02 -2.565743850077078605e+02 -3.528224732393293266e+02 -2.851200523180496020e+02 -2.170228873470049109e+02 -1.670168898707817959e+02 -1.428044721946707227e+02
3.107069097026607718e+00 -1.537242362008173018e+02 -1.558049865984655469e+02 7.600814296399866521e+01 8.055623965279367837e+01 -1.538501261765455013e+02 -2.608374166733964898e+02 -3.569437032686641942e+02 -2.870801088848476752e+02 -2.171938446672793361e+02 -1.668407585981770467e+02 -1.424439259136818805e+02
1.278358835800649906e+00 -1.568878195102245741e+02 -1.568081620495964899e+02 7.954761525714347670e+01 7.970402296786998875e+01 -1.566940922538296377e+02 -2.633868216090692158e+02 -3.611726835332920018e+02 -2.926148193477515633e+02 -2.226074611168639024e+02 -1.710918277699274768e+02 -1.453831375098995693e+02
2.381858556286311934e+00 -1.571128118859976155e+02 -1.574815532998603373e+02 7.840755135620051419e+01 8.086636535416278093e+01 -1.572675737277797055e+02 -2.679539467142861326e+02 -3.660868044043349414e+02 -2.951732495452235412e+02 -2.229409696661638236e+02 -1.704936404753014472e+02 -1.422934011495038078e+02
-3.278404402173612509e-02 -1.628672044420385419e+02 -1.628079039095477185e+02 8.176454318486176476e+01 8.255901742394922849e+01 -1.630532673478467132e+02 -2.701214109235115188e+02 -3.699620560885863370e+02 -3.001816915008678279e+02 -2.268849144837969334e+02 -1.734382453619629132e+02 -1.441165095621995533e+02
2.314525955193327711e+00 -1.649685159145937234e+02 -1.663655831886858891e+02 8.198229181220052908e+01 8.390310348185695943e+01 -1.661198386437949068e+02 -2.754936832473135269e+02 -3.754143142859706472e+02 -3.018476338711892026e+02 -2.271932008979648572e+02 -1.727082914202613324e+02 -1.419755622201114420e+02
1.018404621858716608e+00 -1.725169290142547709e+02 -1.713134831156846190e+02 8.607653788268666517e+01 8.780537778121100700e+01 -1.715431193012499307e+02 -2.777772771021395215e+02 -3.804295508104763144e+02 -3.076725442806413753e+02 -2.324331534548279592e+02 -1.770628462934874676e+02 -1.464915428580896446e+02
1.391275756432180932e+00 -1.744705915509883880e+02 -1.739577637811870829e+02 8.735834590325116267e+01 8.902999049471311821e+01 -1.737790110050838166e+02 -2.822638680126623854e+02 -3.864623273444385063e+02 -3.098693470057490345e+02 -2.332513800139186060e+02 -1.766565923014844657e+02 -1.467415820749335182e+02
8.399022319195423858e-01 -1.787353947585987441e+02 -1.774968212668026410e+02 8.991694760144861220e+01 8.961546127103372328e+01 -1.773866591754897399e+02 -2.844237484584601816e+02 -3.912883364643021764e+02 -3.156119897125471994e+02 -2.382916459726594383e+02 -1.813761792205200720e+02 -1.513848862240718915e+02
2.703746298817030880e+00 -1.769954094963889020e+02 -1.780018856701179857e+02 8.819521208963232084e+01 9.176728250267882459e+01 -1.765441397379318289e+02 -2.855664130963212983e+02 -3.974718425174511367e+02 -3.178092395828230110e+02 -2.395901023576557236e+02 -1.818839486023923939e+02 -1.518358567659757341e+02
1.628112126387993186e+00 -1.789012545885164798e+02 -1.798779122928239929e+02 8.969273326028421423e+01 9.192438357300804341e+01 -1.792828517239137796e+02 -2.862757252080135686e+02 -4.021122655409168374e+02 -3.236012246334678366e+02 -2.454440460846188614e+02 -1.860679448608975122e+02 -1.560013532923800028e+02
3.772657650396124662e+00 -1.778266333151945560e+02 -1.799692498890573802e+02 8.879879342650201579e+01 9.210451368650534221e+01 -1.785456917067951679e+02 -2.874560390208945364e+02 -4.087590200808134000e+02 -3.256658047503221951e+02 -2.465524939603157293e+02 -1.876140744269233949e+02 -1.553259034865035630e+02
-1.385572517517939806e-01 -1.834470857311897873e+02 -1.816612761284571889e+02 9.287047583996013600e+01 9.172953683559725846e+01 -1.814462709169594632e+02 -2.890726063876271041e+02 -4.144380392079593776e+02 -3.320580017939622621e+02 -2.546797747716384208e+02 -1.936156256353848448e+02 -1.590072002631723933e+02
-3.205877426690840526e+00 -1.842638587852937917e+02 -1.801644874847648907e+02 9.505223218791815043e+01 9.008527405563532398e+01 -1.824033785811219559e+02 -2.939612893740970208e+02 -4.223342088878487743e+02 -3.369213563060361025e+02 -2.581588420511768618e+02 -1.958563126647057970e+02 -1.604656070960422767e+02
-9.939478658547690415e+00 -1.909910365443411138e+02 -1.800583627635655830e+02 1.017221307766438514e+02 8.639445801462511554e+01 -1.867119319528045196e+02 -2.977085240129978843e+02 -4.302724404848279391e+02 -3.456655614643510148e+02 -2.666701227964222198e+02 -2.030805376392079609e+02 -1.671427645601879703e+02
-1.499036137767242138e+01 -1.942586208962254375e+02 -1.781799973977641400e+02 1.057891139571342904e+02 8.244411752627186729e+01 -1.869865683402413481e+02 -3.049123148952590441e+02 -4.397506567979254442e+02 -3.508185874653127030e+02 -2.698225187157501637e+02 -2.058908778722560555e+02 -1.715290008515390241e+02
-2.306381917827205186e+01 -2.017038093927346267e+02 -1.778450425037220555e+02 1.138957501723233747e+02 7.867770190344674575e+01 -1.901358192908361104e+02 -3.097335391142958088e+02 -4.480961331287236931e+02 -3.596445868910907393e+02 -2.771287936886798207e+02 -2.127928139155277165e+02 -1.788969795624156518e+02
-2.529419481251548874e+01 -2.015185550646715456e+02 -1.746501815897076426e+02 1.150868796990937142e+02 7.593084917410060086e+01 -1.878244195500396927e+02 -3.169390362403975132e+02 -4.557887722053300763e+02 -3.644934244720226388e+02 -2.794794957239817563e+02 -2.141267071922488867e+02 -1.820774193860691526e+02
-2.784555304140784671e+01 -2.032653189922903323e+02 -1.740240357080869558e+02 1.174952115470547227e+02 7.331717933812387855e+01 -1.880535582433144270e+02 -3.209277444383174043e+02 -4.625946618356547333e+02 -3.719075506771023356e+02 -2.854171173724553228e+02 -2.189800557872526952e+02 -1.878860110628582163e+02
-2.375523373770487723e+01 -1.958967446342709593e+02 -1.722131014980695909e+02 1.111564113468551085e+02 7.515858930382249525e+01 -1.827845836163609476e+02 -3.246602090282276549e+02 -4.691474225836828964e+02 -3.746106001725181613e+02 -2.856309366897556288e+02 -2.183823928822780545e+02 -1.858880057970577013e+02
-1.974787662551050715e+01 -1.931533127691413085e+02 -1.720346864059476673e+02 1.081979351630328949e+02 7.772367867734537583e+01 -1.822177765820161426e+02 -3.279403458629729471e+02 -4.736105201636081006e+02 -3.802389707817274029e+02 -2.897545595473816320e+02 -2.210526126373428326e+02 -1.879014303515501751e+02
-1.378470700840325947e+01 -1.851569388025573062e+02 -1.704275723709014869e+02 1.013879620282272924e+02 7.980225050863668912e+01 -1.782561295241068251e+02 -3.314624934647183068e+02 -4.789099753782381299e+02 -3.805151693737127516e+02 -2.875939889009684975e+02 -2.170936047242733480e+02 -1.844569077383370939e+02
-1.166133203207115265e+01 -1.858517508444647319e+02 -1.716509725199775289e+02 1.000444395037300893e+02 8.142690014723987701e+01 -1.786991098813796270e+02 -3.352717681403199208e+02 -4.836235065800979100e+02 -3.834841332920810260e+02 -2.888532823186375822e+02 -2.176088954334642835e+02 -1.857841652446972205e+02
-9.260173940438694018e+00 -1.827884083978300964e+02 -1.722364212660407361e+02 9.683762692824180363e+01 8.213613436247949551e+01 -1.773288775586026134e+02 -3.396272360581964449e+02 -4.889433801252256444e+02 -3.837747119868121217e+02 -2.851717365046067698e+02 -2.126908652778372470e+02 -1.827189146548383576e+02
-1.047446552597751790e+01 -1.867702327700121998e+02 -1.748618616767607250e+02 9.923599613591744628e+01 8.201790156108758367e+01 -1.805528435342940554e+02 -3.449670321578448124e+02 -4.952830166182193352e+02 -3.877932661670958510e+02 -2.860020567796559021e+02 -2.130374650708941431e+02 -1.852076438725870844e+02
-8.071689663055355624e+00 -1.850717556616019408e+02 -1.750614755571346279e+02 9.844148638585895128e+01 8.379804960180157991e+01 -1.805170857887215163e+02 -3.506095037371619583e+02 -5.023239692594193002e+02 -3.892309424803047477e+02 -2.858064818094704833e+02 -2.123624996230242346e+02 -1.829501983074296447e+02
-1.000649497353922612e+01 -1.903294570144827560e+02 -1.781136212954023961e+02 1.011392602324701073e+02 8.531377937811788570e+01 -1.834966307723315424e+02 -3.543475613303995715e+02 -5.092942256203619991e+02 -3.957239921634512143e+02 -2.912662338898367693e+02 -2.156701745839519617e+02 -1.868009309930003781e+02
-9.644443575258081935e+00 -1.906717872831400200e+02 -1.795260562851198074e+02 1.008554729379841319e+02 8.637463776610046295e+01 -1.854847948155818642e+02 -3.594464967179530959e+02 -5.161785012775787891e+02 -3.999722813460409725e+02 -2.933827016978872280e+02 -2.172675815867023630e+02 -1.865734851466416444e+02
-1.191068663975616815e+01 -1.981326244671922723e+02 -1.848663528788603685e+02 1.058652337157440968e+02 8.736295657267298509e+01 -1.909882234962287271e+02 -3.616164423700627708e+02 -5.232607490147427143e+02 -4.081608062903419523e+02 -3.009909457167656797e+02 -2.233783124400013662e+02 -1.924567601215354102e+02
-1.207137343950931196e+01 -2.014576746928630655e+02 -1.877811821381893935e+02 1.073639724584177060e+02 8.990522033033984428e+01 -1.937620840425378788e+02 -3.650101969562460340e+02 -5.300616526695636139e+02 -4.146864845977355571e+02 -3.065707998343820009e+02 -2.269084565021344702e+02 -1.939303081263306865e+02
-1.633890161491123649e+01 -2.103988749256340043e+02 -1.942378844403644678e+02 1.143926254924563750e+02 9.099458760852034800e+01 -2.018441714648918150e+02 -3.664356793691850385e+02 -5.370969714358204783e+02 -4.241029612021027333e+02 -3.177086308189689134e+02 -2.364817382726477319e+02 -2.007155393840511408e+02
-1.551824120468319634e+01 -2.144525556009323282e+02 -1.974893903738629035e+02 1.161327858276472540e+02 9.124165094813007215e+01 -2.054738838146453759e+02 -3.701684297921729581e+02 -5.423452055735933754e+02 -4.288633867464343439e+02 -3.229013244833997760e+02 -2.418620518444880076e+02 -2.029170691423384483e+02
-1.950321542467966651e+01 -2.213689143490448146e+02 -2.012400839702857525e+02 1.218043418305850878e+02 9.226900900544772810e+01 -2.108507631328924390e+02 -3.709022780107248423e+02 -5.476500666971177225e+02 -4.347656686247818811e+02 -3.302749905888082367e+02 -2.479606247635100260e+02 -2.078842273227407986e+02
-1.773287631075572790e+01 -2.210265793377835450e+02 -2.017691339187748838e+02 1.196580659948029677e+02 9.331078804536994653e+01 -2.116459158238447174e+02 -3.728494508230987776e+02 -5.520525217976652357e+02 -4.343428270420500326e+02 -3.304552276844319749e+02 -2.485830032627000321e+02 -2.068749080159151958e+02
-1.729561021504764540e+01 -2.228976286501746245e+02 -2.038954496701884977e+02 1.207528606451270008e+02 9.435782065764955462e+01 -2.137845853625740631e+02 -3.740735386628282413e+02 -5.561562855899449005e+02 -4.372440473912601533e+02 -3.344653665502484614e+02 -2.507958946088596406e+02 -2.076039314968774931e+02
-1.336332342073503376e+01 -2.177965848777452607e+02 -2.033410908173169105e+02 1.159227922053792810e+02 9.670760789078889275e+01 -2.105792431808183096e+02 -3.756531172830553942e+02 -5.583596056727452606e+02 -4.362990254646334733e+02 -3.313753045448019066e+02 -2.477421185548919880e+02 -2.032522769349179441e+02
-1.044233735028795174e+01 -2.161740662818728254e+02 -2.034688407332781424e+02 1.140592123542249965e+02 9.835613965354041000e+01 -2.104348038617031591e+02 -3.773569370723020597e+02 -5.607863515445538951e+02 -4.391575289222683409e+02 -3.316136603102111735e+02 -2.485986547232078578e+02 -2.038645163243143656e+02
-4.163644331961692480e+00 -2.095766353388094672e+02 -2.038698155275478996e+02 1.076545414001966208e+02 1.007254387095315167e+02 -2.063366727907231279e+02 -3.797149911792378703e+02 -5.621949697125370449e+02 -4.367435158767462440e+02 -3.273426662620317984e+02 -2.443118279270497339e+02 -2.003074537074535897e+02
-3.329264374596289766e+00 -2.069551123641338393e+02 -2.039091977995582283e+02 1.050868372141175371e+02 1.020992176785181869e+02 -2.053042107131830107e+02 -3.812214068204191335e+02 -5.649908568197137129e+02 -4.378208850597330866e+02 -3.275305758357626473e+02 -2.430666891693040270e+02 -1.992986105952685705e+02
2.933639394666239242e-01 -1.993866016062491155e+02 -1.994875004326611361e+02 1.002746238056731301e+02 1.017976731500867089e+02 -1.996550735792061460e+02 -3.821847819035137377e+02 -5.673314796663498782e+02 -4.345282709531208525e+02 -3.220083591747272180e+02 -2.369729986791909369e+02 -1.940402530721047469e+02
-1.006258988012763700e+00 -1.959294880563968775e+02 -1.951039554312070834e+02 9.942520166671853588e+01 9.916745016904960153e+01 -1.944706072046460292e+02 -3.819693268503864942e+02 -5.697068790722877338e+02 -4.346491961662998733e+02 -3.215190564691124564e+02 -2.351240937103886210e+02 -1.921507997969237067e+02
-2.825275927536697873e-01 -1.901735418233749044e+02 -1.896919525477848936e+02 9.551560061854539185e+01 9.651890410515561314e+01 -1.893712469810781727e+02 -3.834127787776025116e+02 -5.713033319741141440e+02 -4.319493642587250406e+02 -3.161126188007523297e+02 -2.306308520136846312e+02 -1.875377029432916345e+02
-1.787299450669396217e+00 -1.894603365378389981e+02 -1.879258577400759691e+02 9.579554519492531028e+01 9.460831184696304774e+01 -1.871427469082239554e+02 -3.842722399941652611e+02 -5.750771277707918898e+02 -4.357094305651857553e+02 -3.171291049390769672e+02 -2.317983760969018761e+02 -1.890386886677599421e+02
-1.973830140273834521e-01 -1.858491319831031490e+02 -1.852236555878845650e+02 9.402390995024127562e+01 9.388781495998263438e+01 -1.852449580190350673e+02 -3.879275943815033543e+02 -5.772612185985132101e+02 -4.363438054119747562e+02 -3.147690957816517994e+02 -2.288899825910246193e+02 -1.869362320807852313e+02
-1.692926038195349925e+00 -1.877871488393062407e+02 -1.853984047187677788e+02 9.453168220478961814e+01 9.283644769008091657e+01 -1.853646843134084747e+02 -3.888904575482012547e+02 -5.810782309239823462e+02 -4.393213030093915563e+02 -3.173604783588860414e+02 -2.309672696574068311e+02 -1.890056941389465806e+02
2.709346520968665573e+00 -1.821036712509640267e+02 -1.845521430924042363e+02 9.054881530772776443e+01 9.461394686261854758e+01 -1.831999586702671934e+02 -3.906982942738945326e+02 -5.831883147627999051e+02 -4.393704127562033364e+02 -3.159449370010968892e+02 -2.276086033024800201e+02 -1.855064889793458462e+02
4.666922671522332422e+00 -1.814993064433270433e+02 -1.855081631679442467e+02 8.922453650381022783e+01 9.611506858112913676e+01 -1.833125355752862902e+02 -3.918700034536456656e+02 -5.870230329592363887e+02 -4.420470622122241480e+02 -3.179759946820839787e+02 -2.274623898320518833e+02 -1.857041501110148261e+02
8.435923472675927570e+00 -1.749946969259697767e+02 -1.842306277202968658e+02 8.460741107093619462e+01 9.732613357899268181e+01 -1.798740067165710173e+02 -3.924282065217869899e+02 -5.876956338427843320e+02 -4.399404583271512479e+02 -3.131579186100681795e+02 -2.224808281830808596e+02 -1.814675826493365207e+02
1.091109263965351950e+01 -1.731872215042544667e+02 -1.817894120405964884e+02 8.297019816219676613e+01 9.807229402715660171e+01 -1.778018297062365036e+02 -3.940657312555407543e+02 -5.898451457768223918e+02 -4.421492645091068994e+02 -3.128559779796469229e+02 -2.225658989095627760e+02 -1.817688399532804056e+02
1.544017988693967602e+01 -1.632218131911765511e+02 -1.793500423949120091e+02 7.490424109249757123e+01 9.922438432961327237e+01 -1.714282960504732216e+02 -3.941797433530480816e+02 -5.907668880760589900e+02 -4.411863408545462448e+02 -3.096762109604654825e+02 -2.175155085371623045e+02 -1.774447304812077562e+02
1.938054848446293832e+01 -1.577673740603554506e+02 -1.764237209254942798e+02 7.069446858466091044e+01 9.888087060556688357e+01 -1.674623839709812216e+02 -3.965200541940732819e+02 -5.926798800299151253e+02 -4.441483415816272213e+02 -3.109776239234454351e+02 -2.189608566947197801e+02 -1.778682609273832043e+02
2.667280774084830597e+01 -1.460564630688562033e+02 -1.710091513266502261e+02 6.061895770371378944e+01 1.004332983996549018e+02 -1.579563773793832411e+02 -3.995642983628576417e+02 -5.926277974730537608e+02 -4.418021231555335362e+02 -3.076761278126955403e+02 -2.143241386914652082e+02 -1.732536583736709304e+02
3.014259681702118954e+01 -1.399093664678881908e+02 -1.688343332533111152e+02 5.590698668076171884e+01 1.009132398412736933e+02 -1.538605588264885853e+02 -4.040154095282146613e+02 -5.947973424459823946e+02 -4.428968687850380093e+02 -3.088622468601108153e+02 -2.136674879451137201e+02 -1.714905201893839717e+02
3.780410412605580461e+01 -1.293763065133928478e+02 -1.653384645953954077e+02 4.679149873759491385e+01 1.024633986750615122e+02 -1.462277792617407215e+02 -4.126478265430837951e+02 -5.958731920755468536e+02 -4.397456837016868008e+02 -3.031939835563203474e+02 -2.082790813139293959e+02 -1.650396795950963167e+02
4.216726764428949537e+01 -1.242003076503533521e+02 -1.652239384945828817e+02 4.196232653678838176e+01 1.042361603551160840e+02 -1.432275222912055881e+02 -4.240080841733087027e+02 -6.000667826273896708e+02 -4.409933426236204923e+02 -3.028925656917497804e+02 -2.064623573768318749e+02 -1.625823320718735658e+02
5.104653951273120782e+01 -1.158275388825116750e+02 -1.636460098622085013e+02 3.284601756336363110e+01 1.090523319402207534e+02 -1.388511222145697843e+02 -4.381026007272146217e+02 -6.019408031703513871e+02 -4.390228281921562825e+02 -2.984604756059117676e+02 -2.003541430671280636e+02 -1.572352318028632112e+02
5.866629049220933467e+01 -1.111359342513696049e+02 -1.669680698466843012e+02 2.674959195277806856e+01 1.146928765905814771e+02 -1.385670966759338683e+02 -4.495091404610691939e+02 -6.085515289574807412e+02 -4.422471589652711828e+02 -2.989509454849747954e+02 -1.997250295376040015e+02 -1.545770480581408606e+02
7.141241721813513266e+01 -1.019468769934836843e+02 -1.714925324303617344e+02 1.576738367733463342e+01 1.224265830127834107e+02 -1.362138046616408928e+02 -4.605267953654455937e+02 -6.131070001350497023e+02 -4.410826777855823480e+02 -2.945159109917744900e+02 -1.944569090082527509e+02 -1.506354407221162717e+02
8.058906316593252939e+01 -9.971151835015709253e+01 -1.793897125829815593e+02 1.004683595782495331e+01 1.322215631038908725e+02 -1.390757182632484898e+02 -4.689612040243013666e+02 -6.205940853459682103e+02 -4.454646534090461500e+02 -2.962297133888513940e+02 -1.950691002241606498e+02 -1.497371168466125653e+02
9.326039326122088369e+01 -9.457519957773618557e+01 -1.867324040808193502e+02 1.194742797267425161e+00 1.423121143020348143e+02 -1.407524304305527494e+02 -4.785063079653619411e+02 -6.262088232048241707e+02 -4.463760821249748574e+02 -2.937737103088775825e+02 -1.928591812633358984e+02 -1.468857566688346026e+02
1.010883423246120714e+02 -9.743835189988260481e+01 -1.964623868227862715e+02 -1.432730619302397423e+00 1.497343804064225026e+02 -1.474360210847592327e+02 -4.903498815298463569e+02 -6.358242501714889841e+02 -4.538455183991040940e+02 -2.975293048436116692e+02 -1.952386048913246270e+02 -1.479839171657233692e+02
1.083974804976781314e+02 -9.698296175771260152e+01 -2.046720826874783086e+02 -6.198930973719215309e+00 1.580826812187461314e+02 -1.507647905275740072e+02 -5.013015608542336849e+02 -6.432518894392657103e+02 -4.576040318052629345e+02 -2.981729589222070445e+02 -1.951770151299278950e+02 -1.472126324376894217e+02
1.117133537365549785e+02 -1.015187405783088934e+02 -2.130094860086078370e+02 -3.871790025970893723e+00 1.632452615828527485e+02 -1.573190487718079851e+02 -5.121064540870816018e+02 -6.538031409973260679e+02 -4.669028096621762529e+02 -3.046712531327039528e+02 -1.992712211673455727e+02 -1.512353571716586487e+02
1.170511622450298717e+02 -1.020736345357135235e+02 -2.171898740977450188e+02 -6.122163104427855274e+00 1.676449274460609331e+02 -1.595473080875471226e+02 -5.207480342895578360e+02 -6.610694791686753433e+02 -4.704105981991414183e+02 -3.050188236539864306e+02 -1.992236992003041394e+02 -1.512025163154870881e+02
1.162441667890359724e+02 -1.075993898948518535e+02 -2.238893306580227431e+02 -3.826374717000068149e+00 1.711345715365761748e+02 -1.652926997104885629e+02 -5.265361824329668252e+02 -6.718063759674658968e+02 -4.787630379841046420e+02 -3.117858895820500038e+02 -2.055145946975150082e+02 -1.564421096955495329e+02
1.188070756680297819e+02 -1.103139566502161841e+02 -2.269449918236492465e+02 -3.795853774751210441e+00 1.743680426375122465e+02 -1.685828758735773079e+02 -5.325113406415143800e+02 -6.799831999648399687e+02 -4.824665371526000399e+02 -3.141551717808270041e+02 -2.073135891887020250e+02 -1.594781375972311821e+02
1.137620217020084965e+02 -1.187624415271579466e+02 -2.317019628453857933e+02 2.524436248616676703e+00 1.736938962533789379e+02 -1.742110187886593735e+02 -5.362732018675097834e+02 -6.907230465464497229e+02 -4.940386212744483032e+02 -3.229391019112044887e+02 -2.157054008577997877e+02 -1.675932840934027013e+02
1.127085821121196290e+02 -1.233860209497747888e+02 -2.338518137950339337e+02 6.424452368893059706e+00 1.742918436928901542e+02 -1.787211278151514477e+02 -5.415369940886306495e+02 -6.999847488041425549e+02 -5.005173121181485953e+02 -3.283730143897509492e+02 -2.205017607854383073e+02 -1.725667386590772026e+02
1.066521192546257737e+02 -1.338479974768208081e+02 -2.387305450471718871e+02 1.450145496570958770e+01 1.737159610140383279e+02 -1.862130909388927478e+02 -5.473683962086108750e+02 -7.115998979477884632e+02 -5.140883987493126597e+02 -3.411630495824965124e+02 -2.317936057296483057e+02 -1.826170144730612890e+02
1.025795181685707576e+02 -1.403827554650959257e+02 -2.418159814927211357e+02 1.833938654545887914e+01 1.742619568634518146e+02 -1.906186087735465833e+02 -5.534853318018047048e+02 -7.197768415455379909e+02 -5.213594709549727213e+02 -3.493191083142019124e+02 -2.374024721393276991e+02 -1.873828015794624946e+02
9.686062849359717575e+01 -1.506609345781734532e+02 -2.456200449665368524e+02 2.643051993427325641e+01 1.726371553349007968e+02 -1.981780548007379821e+02 -5.592353141206962164e+02 -7.315203212433356157e+02 -5.338694386865511206e+02 -3.608846921452656602e+02 -2.486534872261478881e+02 -1.953398817041683913e+02
9.467508378789432300e+01 -1.563040451341354924e+02 -2.499277082009025435e+02 3.029721300113179794e+01 1.733713417614181935e+02 -2.036184235005474932e+02 -5.621508395526007007e+02 -7.385122323133864484e+02 -5.379802402672793278e+02 -3.659798752956596104e+02 -2.509935208623311667e+02 -1.960892654592269366e+02
8.779153890710905728e+01 -1.687076952810324144e+02 -2.556096490122891680e+02 4.052808425037333251e+01 1.736758596706987703e+02 -2.121231119685043609e+02 -5.640482446553212412e+02 -7.483410431977583812e+02 -5.466588303522293018e+02 -3.725105241821443087e+02 -2.574155609446771678e+02 -2.034056966038216103e+02
8.366632832212374637e+01 -1.762554390364149981e+02 -2.598255305884152335e+02 4.729678065456617730e+01 1.721859202530771427e+02 -2.175208161908764453e+02 -5.650615054566131903e+02 -7.533161157892266147e+02 -5.498867422041419104e+02 -3.738439541123881327e+02 -2.589834848847845592e+02 -2.071579681493057592e+02
7.473324478010016492e+01 -1.906828221927331981e+02 -2.634537359329249284e+02 5.844247947612244332e+01 1.696404027002145085e+02 -2.260586097831763936e+02 -5.660027081957056225e+02 -7.633232184720374107e+02 -5.586297917376771238e+02 -3.815833186562718993e+02 -2.674833225058886796e+02 -2.164061501324530923e+02
6.664106230456285118e+01 -2.001652650908041551e+02 -2.668038144701326928e+02 6.624470023880273573e+01 1.682182451696598093e+02 -2.324801730612235247e+02 -5.660256236497823465e+02 -7.681635801757912532e+02 -5.638806686842785894e+02 -3.858738380538766251e+02 -2.720033593073089833e+02 -2.221377322195669706e+02
5.791813207242375228e+01 -2.155476435573609706e+02 -2.714355313223121016e+02 7.936405058894972342e+01 1.646274608792343486e+02 -2.419788536795502409e+02 -5.680668928042590551e+02 -7.782982578438493420e+02 -5.735489880747918505e+02 -3.965961116537822591e+02 -2.824393897814080105e+02 -2.323145748562329800e+02
5.277692365028237731e+01 -2.239730862049817119e+02 -2.757758664545830811e+02 8.605992508064007041e+01 1.643152818918744060e+02 -2.483841089319194850e+02 -5.700300454521096754e+02 -7.840458227111732867e+02 -5.787901069074939642e+02 -4.027827946884852395e+02 -2.868795215714230835e+02 -2.370072317483466975e+02
4.295675336451197524e+01 -2.384138088947327390e+02 -2.803668096956104137e+02 9.826640600371580092e+01 1.626455669306672576e+02 -2.589083400949789393e+02 -5.730685819191484143e+02 -7.942394965492992469e+02 -5.894850124427905484e+02 -4.124709924839813766e+02 -2.953236521477502379e+02 -2.462218066237830385e+02
3.687588500311209572e+01 -2.488615689575578358e+02 -2.847329004202204032e+02 1.069610656168997593e+02 1.603041938049281043e+02 -2.662825784602753174e+02 -5.780275355406985227e+02 -8.009277944030808385e+02 -5.936564657971176757e+02 -4.156465207017281500e+02 -2.977823956618069587e+02 -2.499092664153694159e+02
2.301981058541108283e+01 -2.662704886494672678e+02 -2.893056422071427392e+02 1.211496787855660386e+02 1.566616280297844526e+02 -2.767992989037403504e+02 -5.840284631713166164e+02 -8.131811919759537659e+02 -6.034176673657046877e+02 -4.234119959314065795e+02 -3.052658796881216290e+02 -2.591518529825470409e+02
1.600045957444335798e+01 -2.766996957063521450e+02 -2.926883108709694170e+02 1.308169276142376418e+02 1.553454549964892237e+02 -2.841799723005411238e+02 -5.909457830714333113e+02 -8.207710354075401256e+02 -6.075509378871632862e+02 -4.265576156746165566e+02 -3.097069006630176204e+02 -2.648251184525557278e+02
7.088873466985296190e+00 -2.901518968078144098e+02 -2.962593886141045232e+02 1.420703584593793778e+02 1.536644336947651368e+02 -2.927185648262561699e+02 -5.979608694903092783e+02 -8.331051186073470944e+02 -6.183379292218713772e+02 -4.363454617708219416e+02 -3.191925594470205851e+02 -2.740736477868991301e+02
5.018152448396455689e+00 -2.946633974338512871e+02 -2.996449295314870938e+02 1.447885474953002358e+02 1.533648813164951719e+02 -2.971309490402218216e+02 -6.038674736263385512e+02 -8.396326530531157459e+02 -6.244122756526403464e+02 -4.414337186070249572e+02 -3.245891272025093599e+02 -2.787412137191482771e+02
1.056609368652847936e+00 -3.021421831548996124e+02 -3.032301556406691248e+02 1.510621100738810014e+02 1.526220004020784700e+02 -3.027065108384670111e+02 -6.099296207122404212e+02 -8.510440183471741875e+02 -6.362517938625909437e+02 -4.522576747420874312e+02 -3.351046532161180949e+02 -2.870314730908201000e+02
1.063553548952814731e+00 -3.045896268133394074e+02 -3.056303369025906136e+02 1.527233925142849955e+02 1.543547699209700568e+02 -3.050966660473554271e+02 -6.128866589084291263e+02 -8.565364173605936458e+02 -6.422774814942378043e+02 -4.592160259304168335e+02 -3.414248480265894159e+02 -2.897172071888377900e+02
-4.816011175743286188e+00 -3.139711703387121133e+02 -3.082353019635944520e+02 1.599613621845290083e+02 1.526930086441481933e+02 -3.106317925554037060e+02 -6.168886809518006658e+02 -8.660343347895976649e+02 -6.541897603026167189e+02 -4.740666873672245174e+02 -3.539816140256839958e+02 -2.960265145549853969e+02
-8.734724701923878953e+00 -3.203640718502407481e+02 -3.096160273191017041e+02 1.645116207954268930e+02 1.514686816866381207e+02 -3.149460907401772829e+02 -6.198704620847859132e+02 -8.704467576196092296e+02 -6.582672735645146531e+02 -4.821012919583877760e+02 -3.594115454102877152e+02 -2.976861057352602984e+02
-1.767075032360961018e+01 -3.318849523876482408e+02 -3.122243488963520690e+02 1.748240464648999648e+02 1.477754821685391846e+02 -3.216242269031889691e+02 -6.228868350650549246e+02 -8.781296022344697576e+02 -6.672349569206149908e+02 -4.941627565810331930e+02 -3.680838448278902320e+02 -3.030429168357937897e+02
-2.266073854542237598e+01 -3.364007607980840362e+02 -3.126525082529720407e+02 1.794797369008108490e+02 1.455114798134989371e+02 -3.239617788428562335e+02 -6.249042114982553358e+02 -8.794567975123172801e+02 -6.683779882722659522e+02 -4.963112619190672490e+02 -3.695106689018303427e+02 -3.036756659826496048e+02
-2.891556191743280024e+01 -3.449753565810629539e+02 -3.151398178499367191e+02 1.870015396071423481e+02 1.435791038336778911e+02 -3.296344767388681021e+02 -6.268701893015202131e+02 -8.852410720266410635e+02 -6.724822969844096860e+02 -5.015004752407095907e+02 -3.742851583757068283e+02 -3.080898998274231531e+02
-2.788661562399306248e+01 -3.456213441924937229e+02 -3.166275612367996359e+02 1.866905808793006827e+02 1.453737340080728870e+02 -3.300805305577375748e+02 -6.289117916519818436e+02 -8.844544804331370642e+02 -6.703933099809731857e+02 -4.975492072802381927e+02 -3.716745118418460834e+02 -3.076693148596300489e+02
-3.189699389136704966e+01 -3.500919452171065132e+02 -3.182339211236680967e+02 1.910752021582005966e+02 1.437001590526589325e+02 -3.336635964764632831e+02 -6.299028762358162794e+02 -8.902111609840138726e+02 -6.744697101949881244e+02 -4.996433193053389346e+02 -3.743404003357201191e+02 -3.120453579089672189e+02
-3.173585197507059874e+01 -3.504694118933599611e+02 -3.177554805684158623e+02 1.905614948987034438e+02 1.434872454493931571e+02 -3.340362379756892324e+02 -6.318676902422024568e+02 -8.894249162061717016e+02 -6.732254768878542563e+02 -4.945610930420047566e+02 -3.716532429401355557e+02 -3.125387190057668931e+02
-3.854132583142037305e+01 -3.569053820628712970e+02 -3.182311334540454482e+02 1.977123671312567694e+02 1.407964875319842122e+02 -3.376524920341438474e+02 -6.328896256086416088e+02 -8.951660405167650651e+02 -6.793357857857390627e+02 -4.975211257022281757e+02 -3.743324873717486412e+02 -3.179623155229754161e+02
-4.242266030634893070e+01 -3.592526321802276357e+02 -3.178312856048733579e+02 2.012660413957806895e+02 1.387714871231602558e+02 -3.380121777262751266e+02 -6.356963824497437372e+02 -8.944744806899041123e+02 -6.791308798815803129e+02 -4.944199503419494022e+02 -3.725269869150816362e+02 -3.193999807857603059e+02
-5.130039522443868094e+01 -3.668641897403682606e+02 -3.156602642210081058e+02 2.096485959880641872e+02 1.322268171849108285e+02 -3.408291035457932594e+02 -6.371139819964214439e+02 -8.975440379883852984e+02 -6.853539582684863944e+02 -4.984577523041272116e+02 -3.762384827652143713e+02 -3.250243844554658494e+02
-5.797800545508192016e+01 -3.683307440841159064e+02 -3.103281081439746458e+02 2.131886925789502811e+02 1.269840157341389215e+02 -3.383133720793984480e+02 -6.344877616436547214e+02 -8.920366069496926684e+02 -6.842650172126807320e+02 -4.963070401790082542e+02 -3.762811900245213224e+02 -3.254118267781024088e+02
-6.996299072483714099e+01 -3.740851205083234277e+02 -3.032865549869148367e+02 2.215276566524151178e+02 1.187064428894059063e+02 -3.381429042921659516e+02 -6.255830976475693888e+02 -8.875858682865344917e+02 -6.869316730521691170e+02 -5.005547642696808452e+02 -3.804396724224639570e+02 -3.301552670124117981e+02
-7.940196669989977352e+01 -3.726408158089210474e+02 -2.921105865291964960e+02 2.268317553497925587e+02 1.070034270253117086e+02 -3.319185344704506520e+02 -6.058918086247175552e+02 -8.714782729166676063e+02 -6.799109034533444174e+02 -4.966231018763638190e+02 -3.783820723092784988e+02 -3.294189581046014723e+02
-9.623706698362798306e+01 -3.746593480302631178e+02 -2.775796374102480968e+02 2.357388340310563422e+02 9.148564375124266235e+01 -3.251340430119319080e+02 -5.746395296862802979e+02 -8.519415502316250013e+02 -6.752206802261499661e+02 -4.963122759329337441e+02 -3.808481690996028988e+02 -3.326437206849569179e+02
-1.099001872618244562e+02 -3.666891502305273320e+02 -2.547825884872778204e+02 2.380394656209291497e+02 7.404184032956268879e+01 -3.101955433274974894e+02 -5.287549663465927097e+02 -8.154610124610659341e+02 -6.549611076487690298e+02 -4.855701396847534852e+02 -3.740888463838815028e+02 -3.261410315035139433e+02
-1.280516446071359553e+02 -3.590772780234764809e+02 -2.298594060693808103e+02 2.442470563534533881e+02 5.144781251407552958e+01 -2.935114019286282314e+02 -4.695161732889412747e+02 -7.710755218866872838e+02 -6.328804170874599322e+02 -4.759851087829300695e+02 -3.698752105219947452e+02 -3.242811021919711720e+02
-1.410405370734599444e+02 -3.410490927000096804e+02 -1.999476504331057356e+02 2.408909556054483403e+02 3.037299000205896959e+01 -2.703539188946890022e+02 -3.994760796288082929e+02 -7.034837809760580285e+02 -5.923102150972671325e+02 -4.516895507527111704e+02 -3.560723543929722723e+02 -3.121999686278335844e+02
-1.533644193426555660e+02 -3.238321069784359452e+02 -1.697228899526112968e+02 2.395880868477713932e+02 9.229970894504830881e+00 -2.460223541015516560e+02 -3.196978334748865791e+02 -6.248202004017794025e+02 -5.445088473181598374e+02 -4.259396690491873869e+02 -3.421849523579881520e+02 -3.010602950142086343e+02
-1.539784659128027329e+02 -2.926931696450997151e+02 -1.367192094675430383e+02 2.243073200963803799e+02 -8.055903193197089251e+00 -2.139483949260873885e+02 -2.373350541065047992e+02 -5.231071909361928647e+02 -4.734461157058325966e+02 -3.798110402025911867e+02 -3.095495359666539343e+02 -2.749863265789022648e+02
-1.496578150797748492e+02 -2.551986406589765295e+02 -1.042952605449991097e+02 2.026850714340592390e+02 -2.224643220046698744e+01 -1.794278703967025876e+02 -1.558964374870865015e+02 -4.136002604040771757e+02 -3.928945671259525056e+02 -3.246909015867496464e+02 -2.701993079507656148e+02 -2.416345154291463757e+02
-1.241751153173109401e+02 -1.944274806317542357e+02 -7.031104713911943804e+01 1.594691877776053275e+02 -2.631652555774943636e+01 -1.320934632578313597e+02 -8.495113864122987479e+01 -2.847373223398508344e+02 -2.843332315017486849e+02 -2.425350224785438513e+02 -2.046862821472722089e+02 -1.854960729810207738e+02
-8.298346173879603782e+01 -1.214391883431983672e+02 -3.671488686233175258e+01 1.030455531694913134e+02 -2.354800543924969247e+01 -7.930987014005800972e+01 -3.165464279851930840e+01 -1.590575275024381483e+02 -1.671938984967227668e+02 -1.469242333209322453e+02 -1.269964435510658092e+02 -1.170328656879588607e+02
-1.284297211860598864e+01 -1.818576638586125327e+01 -4.758178694693564026e+00 1.526272902882398697e+01 -4.162823633215292141e+00 -1.126198111724098361e+01 -2.261769353268936023e+00 -2.086397739755742720e+01 -2.326413909004536507e+01 -2.087864575603295947e+01 -1.808076981848586939e+01 -1.716953552737406596e+01
8.196710342112710634e+01 1.032396037443441656e+02 2.083442399260862388e+01 -9.192100026705584526e+01 3.061075712131994209e+01 6.219093184435544686e+01 -5.664908103940888395e+00 1.004348534568642748e+02 1.236188297804379062e+02 1.169389116894603831e+02 1.057856875407234867e+02 9.821467139325254436e+01
2.168071681324111921e+02 2.562188306135364542e+02 4.055791034625128333e+01 -2.359172596816598002e+02 8.844037204200645874e+01 1.492179294999494346e+02 -5.345619739107619495e+01 2.099535701057798462e+02 2.846351220339597603e+02 2.820992893967850250e+02 2.616299887695647044e+02 2.441198429228717544e+02
3.715267442731567940e+02 4.202502067716536089e+02 4.948646915464497198e+01 -3.947746619167205608e+02 1.620580754368341445e+02 2.350055914525205196e+02 -1.489556165402283057e+02 2.778537780214996360e+02 4.272235858376997726e+02 4.459884919902536353e+02 4.206372440297594153e+02 3.980050468647833668e+02
5.674537642517649374e+02 6.125758556737960134e+02 4.641218307847474733e+01 -5.902802235024838637e+02 2.607468274591543036e+02 3.304291884249450959e+02 -3.003586289092457946e+02 3.173983345065763046e+02 5.718318280676930954e+02 6.319325348661914177e+02 6.113857042672990474e+02 5.786547338356108412e+02
7.591602602104109110e+02 7.875197254725508174e+02 2.896604408785450246e+01 -7.715851175916657212e+02 3.648974726194056188e+02 4.081373183019391604e+02 -4.944672191361928526e+02 2.868142030812152825e+02 6.608577380415296147e+02 7.860276718676730070e+02 7.773734451462084962e+02 7.419622929874739157e+02
9.872235346899755086e+02 9.846383664287251349e+02 -3.406369912798798971e-01 -9.912094444753385005e+02 4.947328279746325848e+02 4.945648221042216051e+02 -7.294290399036093504e+02 2.474750924749544936e+02 7.683089666011610461e+02 9.783391255245068123e+02 9.858387805873184107e+02 9.360740895860038790e+02
1.159940129407746326e+03 1.119161045367774022e+03 -4.111562302681151237e+01 -1.136538162021579637e+03 6.010276810378952632e+02 5.378823356856979672e+02 -9.668114845631326943e+02 1.157980324656698059e+02 7.674594507998726840e+02 1.079468864776390319e+03 1.108891735531522954e+03 1.058971945682287014e+03
1.288701910085645750e+03 1.206088305252041209e+03 -8.606665213830859784e+01 -1.241754036742750259e+03 6.890885081066709290e+02 5.590255294164634279e+02 -1.212753939769399267e+03 -1.216910277766144617e+02 7.032106560651155860e+02 1.117481583049652727e+03 1.206044685489358926e+03 1.154813442813189567e+03
1.348351312351632259e+03 1.241441230102862164e+03 -1.088984486843933439e+02 -1.289928896620222531e+03 7.294096386836832835e+02 5.648307555702492664e+02 -1.383367384888800188e+03 -3.887700272314743870e+02 5.924014959116267391e+02 1.101521793750664756e+03 1.225671389985527867e+03 1.184328697131849822e+03
1.332879190035429929e+03 1.214545077487889330e+03 -1.124244616130956160e+02 -1.272230047902534579e+03 7.219789780218759461e+02 5.533684482963707296e+02 -1.490271473738424675e+03 -6.737537932097274052e+02 4.266307579122804441e+02 1.034661916880261288e+03 1.194476718495785235e+03 1.153559397843341230e+03
1.243740594095233519e+03 1.122946630903690220e+03 -1.182667916742255443e+02 -1.184233606483038784e+03 6.831207737417295220e+02 5.048684644980305052e+02 -1.541051982676582611e+03 -9.828679672915585570e+02 2.060955731747619097e+02 8.887692193336260971e+02 1.083227572496292623e+03 1.057400854043801019e+03
1.084237681671480914e+03 9.652644089165273726e+02 -1.146771673144502728e+02 -1.022721832448851956e+03 5.993911852549027799e+02 4.261118430383838813e+02 -1.520002419975664225e+03 -1.306460585177018856e+03 -7.502722764309305603e+01 6.680950501670337189e+02 8.908849813318435054e+02 8.842494288436317902e+02
8.907087181477641025e+02 7.621416692490543028e+02 -1.254170965280829506e+02 -8.248768384607013786e+02 5.081261273210308218e+02 3.181998257121550182e+02 -1.461716964707754869e+03 -1.568234789769049939e+03 -3.598340700032613881e+02 4.065211751575769767e+02 6.648301795200030710e+02 6.803103580696856625e+02
6.653065911241927779e+02 5.173177441560187617e+02 -1.465400608523516155e+02 -5.904727696937320616e+02 4.072509245563833247e+02 1.863918096449154120e+02 -1.372396897607601204e+03 -1.759323252238729765e+03 -6.505660945456679656e+02 9.670000519067043854e+01 3.867071255390317788e+02 4.358748384938667755e+02
4.542140616451885080e+02 2.863886234072356274e+02 -1.659947369335013434e+02 -3.697023588206656655e+02 3.115554526361470380e+02 6.027715076165396368e+01 -1.278941805377000946e+03 -1.876569724854972037e+03 -8.833059869900066587e+02 -1.795776920884666197e+02 1.332142905153512515e+02 2.130497886610878027e+02
2.636084326497594361e+02 7.063535163404961281e+01 -1.933425832096157535e+02 -1.655115070103605035e+02 2.276800831514770493e+02 -6.076108708692817828e+01 -1.167726022315391219e+03 -1.914151313333163898e+03 -1.058222087259433238e+03 -4.221373205786282483e+02 -1.025845309285104889e+02 4.924322486060257020e+00
9.380999855087006267e+01 -1.165825315618956353e+02 -2.086490632990195309e+02 1.248581146156668176e+01 1.516057687404438923e+02 -1.634375917806028440e+02 -1.067726090033294895e+03 -1.912431846028628115e+03 -1.187514175573971443e+03 -6.195287472713870329e+02 -3.008720146909262212e+02 -1.756467134232535159e+02
-4.897492586057459363e+01 -2.756921128038036954e+02 -2.253601710399719593e+02 1.629179955464141472e+02 8.935705402041452317e+01 -2.503719482922364250e+02 -9.710733414064729914e+02 -1.862971771148736252e+03 -1.255311364276293716e+03 -7.673179332834298521e+02 -4.629853155089977577e+02 -3.269210383736704557e+02
-1.404754876574894240e+02 -3.922267583010872158e+02 -2.509203503240269413e+02 2.674918466307645986e+02 5.685132805108182907e+01 -3.217900501577466912e+02 -9.064639979754864498e+02 -1.805343080589790361e+03 -1.295829195855578064e+03 -8.699569174233847662e+02 -5.778230209745402135e+02 -4.347597528519721095e+02
-1.753329844371669139e+02 -4.644568762360477763e+02 -2.879711576271253648e+02 3.210395500715332560e+02 5.760334855315370106e+01 -3.757574564112616713e+02 -8.734325275070399357e+02 -1.713969960973089428e+03 -1.296880191751428356e+03 -9.183720742736857119e+02 -6.393738772193734121e+02 -4.921175962252453360e+02
-1.837510597168041215e+02 -5.066542629211893427e+02 -3.220951866492964655e+02 3.446142010539095963e+02 6.891723011318335068e+01 -4.135583331006637877e+02 -8.616819175617134761e+02 -1.630304870775409881e+03 -1.258065201465639120e+03 -9.338360354478106728e+02 -6.669226249668381570e+02 -5.217502056508712940e+02
-1.672865669429342006e+02 -5.081267392809969010e+02 -3.395272974041375846e+02 3.382065758150939700e+02 8.608026225135279219e+01 -4.227952764452618339e+02 -8.489912728671512241e+02 -1.522826400329266335e+03 -1.197840311545897521e+03 -9.071563243054880559e+02 -6.554984646065626066e+02 -5.164120914928537331e+02
-1.484327730345331418e+02 -5.048700395980613962e+02 -3.564972452083323446e+02 3.285325928601583882e+02 1.036239704442273819e+02 -4.295528310711927702e+02 -8.385645532447575761e+02 -1.414833810106878673e+03 -1.133476960410238235e+03 -8.718231420306734663e+02 -6.343803293426690288e+02 -5.059703901352950766e+02
-1.258874757658099810e+02 -4.919287907941297817e+02 -3.645396375682687449e+02 3.103027357687017798e+02 1.212896997925236207e+02 -4.280925617571569433e+02 -8.149969610459502292e+02 -1.308453368222941890e+03 -1.060686170195806426e+03 -8.190488617758475129e+02 -6.024513821738879642e+02 -4.855591976833622425e+02
-1.131740056547960336e+02 -4.826187620768720876e+02 -3.684253627919509313e+02 2.989679475584188708e+02 1.272316401750532293e+02 -4.249688659122280683e+02 -7.799343521505005583e+02 -1.220046197529855363e+03 -9.936687813147214001e+02 -7.736655202721303795e+02 -5.740854802342694256e+02 -4.687595647056842836e+02
-1.062817587968604300e+02 -4.739543598275539580e+02 -3.688241940702092734e+02 2.919738854411057218e+02 1.320789130668591156e+02 -4.221939402511256958e+02 -7.344175118576658861e+02 -1.132269937509422562e+03 -9.312596547068992550e+02 -7.314987193596213046e+02 -5.475645030316841257e+02 -4.525522240429042427e+02
-1.039587250293063505e+02 -4.684930874758584878e+02 -3.647681263716695526e+02 2.868411822013484880e+02 1.299678751024197254e+02 -4.156857661914201572e+02 -6.879680937667679927e+02 -1.070252079301423009e+03 -8.913468038163864549e+02 -7.016844139136434251e+02 -5.309569076413854418e+02 -4.424165882611528673e+02
-9.436993164339216378e+01 -4.562733984299708823e+02 -3.618667196607768233e+02 2.759245836112927464e+02 1.340139059095889991e+02 -4.075678794959326865e+02 -6.484926266111541509e+02 -1.013312050709598111e+03 -8.610742322668124871e+02 -6.771149983932921259e+02 -5.219489123131379529e+02 -4.354013510676785472e+02
-8.792394541664931751e+01 -4.562367115641590658e+02 -3.678788393734648139e+02 2.723354828375792067e+02 1.421630774953840444e+02 -4.120508379767284168e+02 -6.299728110114381252e+02 -9.768084899733296425e+02 -8.476908068124855617e+02 -6.677443573417751850e+02 -5.206815165556731699e+02 -4.387398282987867901e+02
-7.900874063135483993e+01 -4.647415589402846763e+02 -3.841562389967750732e+02 2.734942689214566940e+02 1.529498247518258154e+02 -4.234119888672204297e+02 -6.270830263808576319e+02 -9.502458793014452567e+02 -8.386734239812246869e+02 -6.628802895032977176e+02 -5.237260717849902676e+02 -4.438567809897123198e+02
-6.915962578801730842e+01 -4.787952888818489328e+02 -4.104864327329378852e+02 2.752970685166040994e+02 1.717996700995915091e+02 -4.435930612473953261e+02 -6.423630638621542630e+02 -9.355592987886523133e+02 -8.369265728391086441e+02 -6.652077584532962646e+02 -5.279163305537811084e+02 -4.509164008888978969e+02
-5.413962302936581494e+01 -4.923655855387688121e+02 -4.368484968385015463e+02 2.732083377515243683e+02 1.912872669097542655e+02 -4.640676820456401401e+02 -6.608615063187213536e+02 -9.206109345755768345e+02 -8.272816207819699912e+02 -6.620931134536863283e+02 -5.243256678258964030e+02 -4.500740768872276476e+02
-4.057838977512344769e+01 -5.015142008439134997e+02 -4.576957845341275970e+02 2.726631711878532087e+02 2.084232324465351098e+02 -4.787525328628270245e+02 -6.781963111570394176e+02 -9.149843918637380966e+02 -8.213356650747526828e+02 -6.588462016090645648e+02 -5.193816745167886211e+02 -4.488809978133158438e+02
-3.024370812017649968e+01 -4.932349120580770432e+02 -4.627791093075208551e+02 2.618519427178437127e+02 2.176211278407144505e+02 -4.791609266112973842e+02 -6.811917719653904442e+02 -9.028859285655478288e+02 -8.084266803500871674e+02 -6.455205118236066255e+02 -5.097517380109492819e+02 -4.436743746016263117e+02
-2.528579466013063026e+01 -4.864081003795515130e+02 -4.610060681690148385e+02 2.557518696940855705e+02 2.191322271295561563e+02 -4.736608662644569563e+02 -6.747826736082770367e+02 -8.951857596057260480e+02 -7.999283171477508176e+02 -6.351414729893181175e+02 -4.986347188431082600e+02 -4.376495431901602160e+02
-2.898172660041217696e+01 -4.763028674485719307e+02 -4.474533611666806223e+02 2.531846478379071925e+02 2.098434327739293792e+02 -4.612642709145868025e+02 -6.536244298496746978e+02 -8.777568411214903108e+02 -7.875811592013858444e+02 -6.205565356972578002e+02 -4.897441723536499580e+02 -4.302600395251907344e+02
-3.625814440468567312e+01 -4.732425718016965561e+02 -4.368706241428065482e+02 2.541678432562720786e+02 2.008360503067061700e+02 -4.548586727390131728e+02 -6.393997034377244972e+02 -8.710210465941663642e+02 -7.849987196137846013e+02 -6.146229659163761880e+02 -4.867770639587601522e+02 -4.295151258796058187e+02
-3.668388181876710519e+01 -4.690614530582819839e+02 -4.324548850334898589e+02 2.525529482359656299e+02 1.980763315549018841e+02 -4.506476681817302392e+02 -6.331876190353464153e+02 -8.593958404878599140e+02 -7.765985932458422667e+02 -6.065351035834312370e+02 -4.814619408221445838e+02 -4.264328919130672375e+02
-4.148785406661038166e+01 -4.714181132567940722e+02 -4.299374353749182092e+02 2.555392178560614695e+02 1.943970354312529025e+02 -4.498483603177018040e+02 -6.300939882247149626e+02 -8.553567525793064306e+02 -7.772740742703531396e+02 -6.056255194645383426e+02 -4.828339272761745065e+02 -4.280717319026938412e+02
-3.977010797167171319e+01 -4.714599634299508466e+02 -4.311703624734988693e+02 2.546676622164718538e+02 1.963730987587375125e+02 -4.516345486719424116e+02 -6.332142774125401274e+02 -8.461518489968532322e+02 -7.727988863439328497e+02 -6.027028596258085145e+02 -4.811241709642646356e+02 -4.285916826267113038e+02
-4.006623853449885075e+01 -4.778017525021981555e+02 -4.369478040325994925e+02 2.578217305973422526e+02 1.988090964298024801e+02 -4.573526294055535004e+02 -6.378480025812468739e+02 -8.448808532501500395e+02 -7.745890545879113915e+02 -6.053268632225309602e+02 -4.832493101755666203e+02 -4.308580259870229838e+02
-3.813130529446245731e+01 -4.809360012375796600e+02 -4.433525819339383816e+02 2.589035563739776080e+02 2.030520901004092877e+02 -4.614599023132151387e+02 -6.427069355133651243e+02 -8.367385286936120110e+02 -7.691047264073135921e+02 -6.022292571200533757e+02 -4.829380768246021489e+02 -4.296582668996244934e+02
-4.045162694956281513e+01 -4.878838514728937525e+02 -4.464444904364482909e+02 2.634376874424560810e+02 2.025932813469846963e+02 -4.669925196761518009e+02 -6.440730106777242554e+02 -8.366106814707211470e+02 -7.709859022980241434e+02 -6.040605201904854766e+02 -4.848141502527952298e+02 -4.320822836283225001e+02
-4.294253447249228373e+01 -4.900994309615605289e+02 -4.468595608282169565e+02 2.654195956461535957e+02 2.028814105358777624e+02 -4.685582511588797843e+02 -6.412566301506824402e+02 -8.289040798488035762e+02 -7.665106457710159020e+02 -6.018681121350318790e+02 -4.832373074593558044e+02 -4.295617028560741346e+02
-4.954752201264794564e+01 -4.936826854176286474e+02 -4.440290256044547164e+02 2.706809690815360341e+02 1.973443900065177274e+02 -4.686012958857105559e+02 -6.376674818502282278e+02 -8.282167014599391450e+02 -7.671914982262126159e+02 -6.042055082140217337e+02 -4.847267001967710485e+02 -4.306955018888285167e+02
-5.289841368236687913e+01 -4.915077850219201423e+02 -4.392415364265328321e+02 2.711547580058361291e+02 1.928320356149783947e+02 -4.645808292547210954e+02 -6.317889116360486241e+02 -8.192578785749292365e+02 -7.630565266382810705e+02 -6.013987125732984396e+02 -4.833312876451172428e+02 -4.292694503146907437e+02
-5.575973646373241621e+01 -4.893144907586587919e+02 -4.342163265254186513e+02 2.715597279965190296e+02 1.889188145677985631e+02 -4.606499895710817896e+02 -6.280401945225715963e+02 -8.182354741899653163e+02 -7.640286317067115078e+02 -6.025858839207795654e+02 -4.843100062945196669e+02 -4.307616131443087397e+02
-5.170950666502522353e+01 -4.820413183801993000e+02 -4.299608602365707384e+02 2.660383619177974310e+02 1.877632614062779908e+02 -4.553120147109171398e+02 -6.238443143525428241e+02 -8.093071233225125525e+02 -7.581505467997458254e+02 -5.989783433525205965e+02 -4.813782784307010729e+02 -4.289284806866498911e+02
-4.942487678407311336e+01 -4.770916479707836970e+02 -4.284204691129676235e+02 2.629812870523551851e+02 1.891541952304775975e+02 -4.522637204449150090e+02 -6.225756388103310428e+02 -8.083662620671436798e+02 -7.596608322093726429e+02 -5.986120436090524208e+02 -4.797962165321996508e+02 -4.286986773039553782e+02
-4.192796119513177189e+01 -4.691054802611017180e+02 -4.277348256400981086e+02 2.545900161811794931e+02 1.930055588091631762e+02 -4.481281927704182522e+02 -6.215822022130762434e+02 -7.989245007801569045e+02 -7.538992130754739946e+02 -5.928688079643237643e+02 -4.739781344169759905e+02 -4.249021540132607697e+02
-3.839110040721498507e+01 -4.672081597529472106e+02 -4.286409797867019620e+02 2.520805102954371932e+02 1.948299586716796910e+02 -4.480615960944027165e+02 -6.227591265870316874e+02 -7.971298749260826071e+02 -7.539633159286275941e+02 -5.909586763418900546e+02 -4.721480370325612057e+02 -4.228709854625519711e+02
-3.370532842595724077e+01 -4.626254891304314469e+02 -4.290019653955484387e+02 2.476841422790400031e+02 1.973111131214192255e+02 -4.455504083522100132e+02 -6.229949073498469261e+02 -7.886503324868120899e+02 -7.479280028983162083e+02 -5.848648366233763909e+02 -4.674007541072854792e+02 -4.194623883398591033e+02
-3.219231290316601957e+01 -4.613015106401368257e+02 -4.291240247532755916e+02 2.462771769148163798e+02 1.984413066837763893e+02 -4.444443096833038567e+02 -6.224175174134699091e+02 -7.869062266651436630e+02 -7.477343042414521506e+02 -5.830268444741238909e+02 -4.644625481230920627e+02 -4.176996133939288711e+02
-2.773296591806860434e+01 -4.566196235781584392e+02 -4.284520351069625121e+02 2.416123995999008685e+02 1.995462538066181821e+02 -4.414735312358045007e+02 -6.193911881724970954e+02 -7.770146452155780707e+02 -7.398230442868908767e+02 -5.769048326458342899e+02 -4.598209980265443733e+02 -4.127402257773687211e+02
-2.654843503821143713e+01 -4.556416140425565118e+02 -4.282149797904095294e+02 2.407055158855650348e+02 2.008314882171127351e+02 -4.408107743119645079e+02 -6.159452207256194924e+02 -7.749687470844834252e+02 -7.388393295057413752e+02 -5.750614755836063523e+02 -4.580239208905095438e+02 -4.107541382210066558e+02
-2.344773894489464183e+01 -4.526114071051964061e+02 -4.297002709695915428e+02 2.372253811443532925e+02 2.027413875431028032e+02 -4.394119285389608081e+02 -6.104827456379014166e+02 -7.650244882212537050e+02 -7.330011205669109131e+02 -5.691960444148402303e+02 -4.546391715156477176e+02 -4.059626992386394591e+02
-2.256512813190399314e+01 -4.536577400233429103e+02 -4.302324464186842761e+02 2.371203798294523040e+02 2.036410860388158994e+02 -4.408771960254440501e+02 -6.075052909082947963e+02 -7.634108897545908121e+02 -7.337035023124767577e+02 -5.693998277027100130e+02 -4.554676832552185601e+02 -4.061775458590054768e+02
-1.958366345252343521e+01 -4.523620616678422834e+02 -4.323170218629277883e+02 2.348967908643483895e+02 2.061260682945685403e+02 -4.410131404584885786e+02 -6.028707548455163305e+02 -7.546542047973996432e+02 -7.301900432521232460e+02 -5.668089611212112686e+02 -4.551936069464532011e+02 -4.044145601377009029e+02
-1.792190899815145144e+01 -4.533266798990049438e+02 -4.354702900629304168e+02 2.348836644858802742e+02 2.084470731379798849e+02 -4.432487436024676413e+02 -6.017478844346011329e+02 -7.538729680794245951e+02 -7.321737694502487557e+02 -5.694686283774481126e+02 -4.582674463821945778e+02 -4.077562728359609423e+02
-1.234389340363675025e+01 -4.510080686588220829e+02 -4.383932719191527099e+02 2.312286396940503721e+02 2.129334070575413875e+02 -4.445859563035145356e+02 -6.005070508936838678e+02 -7.462885917750535327e+02 -7.297712627485054782e+02 -5.684221824805207461e+02 -4.580984370294921746e+02 -4.078667602363269111e+02
-1.037833169345348949e+01 -4.532480752734176122e+02 -4.414011680235722110e+02 2.311466902339752494e+02 2.149730943747757976e+02 -4.473222869785547573e+02 -6.016831934797834265e+02 -7.460079458584841632e+02 -7.322592596704430434e+02 -5.715633674577962893e+02 -4.613904814540136954e+02 -4.100683435497646769e+02
-8.037301769717497990e+00 -4.523778406132562395e+02 -4.441827533580218983e+02 2.291419650392068661e+02 2.185449017189470169e+02 -4.482783872471545124e+02 -6.025504522374204726e+02 -7.382801644127800955e+02 -7.295254210414628915e+02 -5.700911451839502888e+02 -4.606473006794621483e+02 -4.099165605480749264e+02
-7.897521958569305056e+00 -4.536829753126589253e+02 -4.451361950720027494e+02 2.308842221176182079e+02 2.188405239914909259e+02 -4.494218875619054074e+02 -6.047027471500479123e+02 -7.381355045839515014e+02 -7.302949297532973105e+02 -5.717637633168488946e+02 -4.629848548090071745e+02 -4.116727246257555635e+02
-6.855799255133169012e+00 -4.521110613950807533e+02 -4.447850136412446886e+02 2.288226963828492160e+02 2.189608445743330094e+02 -4.484233887402402843e+02 -6.033870375994732740e+02 -7.299952758659160281e+02 -7.260581072156220444e+02 -5.678613315319690855e+02 -4.608459374583423482e+02 -4.104891254406754229e+02
-8.342713133451280072e+00 -4.515736221917168223e+02 -4.427753199539563980e+02 2.294354931283378960e+02 2.171841330759991138e+02 -4.472162810908610027e+02 -6.046008660054350230e+02 -7.286646888428406328e+02 -7.255668123451533802e+02 -5.663606363475892067e+02 -4.610715084013507976e+02 -4.109075757688817703e+02
-6.241137700162235902e+00 -4.466182314226204539e+02 -4.399812930206035730e+02 2.261155138059800436e+02 2.169246004943593960e+02 -4.432241489543725947e+02 -6.033608597100464976e+02 -7.197031710218949456e+02 -7.193728123234419627e+02 -5.598776061047569783e+02 -4.569490980130623257e+02 -4.077578364220336198e+02
-7.192503320770097019e+00 -4.441488466549781151e+02 -4.381370175492999692e+02 2.246921835240712824e+02 2.153803229099716816e+02 -4.413708674931455676e+02 -6.049151443145397025e+02 -7.171753726612348601e+02 -7.186177238709237827e+02 -5.570911026481277304e+02 -4.557269635729760466e+02 -4.080299767376779982e+02
-3.030665555689942892e+00 -4.405372284323781855e+02 -4.366718706605925036e+02 2.212763429842704852e+02 2.170772989094204490e+02 -4.391429309916313741e+02 -6.046683576004455745e+02 -7.077271935263160003e+02 -7.125780250587362161e+02 -5.516230287220504351e+02 -4.525483761095612181e+02 -4.043758142441502628e+02
-1.240951817245824929e+00 -4.395199889451052968e+02 -4.373872680525806231e+02 2.193076182693977501e+02 2.184589115762262850e+02 -4.389749356972869805e+02 -6.051975930288380141e+02 -7.052080397203861821e+02 -7.135627725158477688e+02 -5.513039209169387505e+02 -4.517345019634144023e+02 -4.038825270253155963e+02
4.565618057026393117e+00 -4.350366009282762434e+02 -4.387404078254845103e+02 2.151403937134716386e+02 2.215191941472015458e+02 -4.372198599942947226e+02 -6.027669963020179011e+02 -6.961043838360513973e+02 -7.091035126178143173e+02 -5.487972908305338251e+02 -4.488866294470988123e+02 -4.005496773811191247e+02
6.232470034383917223e+00 -4.337172551650547803e+02 -4.403778371062119845e+02 2.136774313521316344e+02 2.234081788750671365e+02 -4.369502177589408234e+02 -6.016427917668373766e+02 -6.945433470663735989e+02 -7.108078952862671258e+02 -5.493870261075254575e+02 -4.490143984105022241e+02 -3.995314509610706182e+02
9.535773649519606820e+00 -4.306445688493899979e+02 -4.397387004443452838e+02 2.106213960516070358e+02 2.245281795904366504e+02 -4.352686316031824845e+02 -5.988845428769972159e+02 -6.848734750337415562e+02 -7.054559545256540787e+02 -5.468782396892798943e+02 -4.454767346400136603e+02 -3.953646073877733329e+02
9.545267880027362040e+00 -4.299269925738551024e+02 -4.402220780293823168e+02 2.100490527001821022e+02 2.250343294946407013e+02 -4.349005203927736716e+02 -5.997237171123736061e+02 -6.843803968046479440e+02 -7.051846104387415153e+02 -5.468935827896564206e+02 -4.447193763134172286e+02 -3.949416775464409852e+02
1.080425321530793425e+01 -4.285356264151170080e+02 -4.397903875874077926e+02 2.080802929195489241e+02 2.249660658308125107e+02 -4.335369984178951199e+02 -5.999645695469585007e+02 -6.762257892940933743e+02 -6.994748616232265022e+02 -5.418867014596789886e+02 -4.399631618508027486e+02 -3.917527134867950735e+02
1.065599721713471126e+01 -4.291286998041893526e+02 -4.402189100624131015e+02 2.083829936802046063e+02 2.252863135384237694e+02 -4.344173949285788581e+02 -6.018291561946274442e+02 -6.752422034380056175e+02 -6.993857200664514266e+02 -5.407337063068328007e+02 -4.389491587819742335e+02 -3.923976420692135889e+02
1.159799205004225975e+01 -4.276308449302727581e+02 -4.397240619375434107e+02 2.075537847734015600e+02 2.261397213859934254e+02 -4.335747285750011883e+02 -6.019249413165516671e+02 -6.674686671334857238e+02 -6.952642457491594996e+02 -5.363682658916708306e+02 -4.354341941749795524e+02 -3.900299152186741480e+02
1.211241013512300491e+01 -4.297739832215322622e+02 -4.406614471269641058e+02 2.084878209764048336e+02 2.263646628458605221e+02 -4.346032365059936637e+02 -6.036718114917445064e+02 -6.659187179150626434e+02 -6.970894317895180166e+02 -5.381497732922684918e+02 -4.354993483172329434e+02 -3.921473290676167380e+02
1.353547933751932142e+01 -4.283562141370959466e+02 -4.427113486734182288e+02 2.073398730444892237e+02 2.287313728706422182e+02 -4.350969308321671178e+02 -6.021607266617872938e+02 -6.572371560722524464e+02 -6.951353623607537884e+02 -5.376980148343552628e+02 -4.343597079694155809e+02 -3.913309184189375856e+02
1.474741253140941843e+01 -4.294243111055526469e+02 -4.447379661850818593e+02 2.068259046071846683e+02 2.294274309063176247e+02 -4.366183703527023567e+02 -6.021990482648509442e+02 -6.543587182330423957e+02 -6.981813607221805569e+02 -5.417524000584526220e+02 -4.358899239618085630e+02 -3.929258458053715231e+02
1.991756609970559211e+01 -4.268154709344989897e+02 -4.467077271354532400e+02 2.036413464988116289e+02 2.336152680652818106e+02 -4.370148572683901875e+02 -5.998872135393252165e+02 -6.435476386764293011e+02 -6.940709280640070347e+02 -5.413356739805855113e+02 -4.355691999423335687e+02 -3.925664569794880663e+02
2.292993512992840976e+01 -4.254848734296027146e+02 -4.483736652121852444e+02 2.011544058730710560e+02 2.352753252964112107e+02 -4.364556100137701833e+02 -5.988099164688823066e+02 -6.389319227254698035e+02 -6.943975132710828575e+02 -5.425919711530588074e+02 -4.365161872918664585e+02 -3.933268678535257550e+02
2.772220454594187444e+01 -4.197137154081348172e+02 -4.475084420205974425e+02 1.960067812190836776e+02 2.383648663886876875e+02 -4.328313468584394741e+02 -5.956392475639167969e+02 -6.277162302695046492e+02 -6.884262041842549706e+02 -5.396068998281350559e+02 -4.353213455044778470e+02 -3.910049005298681095e+02
3.118702592931157369e+01 -4.159547466781423850e+02 -4.470345869194197235e+02 1.916249911278803779e+02 2.402132999743162998e+02 -4.315807520957611132e+02 -5.933839487395306378e+02 -6.248844846674284099e+02 -6.870608544893893850e+02 -5.389364306635480943e+02 -4.348893009520802480e+02 -3.913545049767665773e+02
3.685415220725775498e+01 -4.097333766743679462e+02 -4.467616540800182179e+02 1.862968394519707545e+02 2.417540942304750331e+02 -4.274943275901123911e+02 -5.897799246864568659e+02 -6.167488480209733552e+02 -6.819697068305803214e+02 -5.340045038692708204e+02 -4.318465990712258531e+02 -3.888116320064548290e+02
3.986011088021124493e+01 -4.061851256401813544e+02 -4.456242479211555860e+02 1.828415628462152824e+02 2.432836174663925988e+02 -4.257082484387552199e+02 -5.888995854652781645e+02 -6.150338694090678473e+02 -6.808965323483213297e+02 -5.312552325306334069e+02 -4.307097646732700014e+02 -3.879798337932710410e+02
4.434660029480201615e+01 -4.013171173626577684e+02 -4.448809452410837935e+02 1.774692171741211837e+02 2.444584203435054235e+02 -4.229490877060202365e+02 -5.858188328553374049e+02 -6.068041045435850265e+02 -6.747934755057615348e+02 -5.247744829307184773e+02 -4.263899257794783466e+02 -3.845565293239471316e+02
4.489775862939286100e+01 -4.002169844413310216e+02 -4.450733493025077792e+02 1.774120896118731991e+02 2.449778647875707804e+02 -4.220849917788282255e+02 -5.850629193055688120e+02 -6.050502333498160397e+02 -6.742338479042806512e+02 -5.226583675090595307e+02 -4.250132144505581095e+02 -3.827730971599094687e+02
4.647721196657229825e+01 -3.997558815513946797e+02 -4.449509550394549251e+02 1.766435436743054765e+02 2.451021477512089746e+02 -4.219694549343201402e+02 -5.834225110593642967e+02 -5.970631809544292992e+02 -6.691155941675463055e+02 -5.171098715548775999e+02 -4.233994828754306923e+02 -3.800357826261413265e+02
4.372833335303587887e+01 -4.021139362294535431e+02 -4.450088119644235576e+02 1.792052739123490142e+02 2.447497468828722447e+02 -4.236082771512723184e+02 -5.845521158463485563e+02 -5.964574658454796463e+02 -6.697069973368348883e+02 -5.181670205291334241e+02 -4.248274892817763089e+02 -3.806293568633795985e+02
4.167488939426885963e+01 -4.044772482412703312e+02 -4.451603459867029073e+02 1.813790535018659966e+02 2.436750074839666240e+02 -4.239790700264245515e+02 -5.834372671529908985e+02 -5.893778720507776825e+02 -6.668899607699873968e+02 -5.188287942308928677e+02 -4.264181468983215382e+02 -3.808597532068279179e+02
3.933367323336901222e+01 -4.064614438357492077e+02 -4.462199721447706793e+02 1.836009008267314755e+02 2.429841079506117580e+02 -4.256075319839090412e+02 -5.846712123010104278e+02 -5.897170842287828236e+02 -6.688459319449649456e+02 -5.225012444454127944e+02 -4.301642385419119137e+02 -3.827656159355520344e+02
4.093711850969922494e+01 -4.055646471692859905e+02 -4.459367291861514673e+02 1.822451569338308275e+02 2.446060730746027048e+02 -4.258518031278994727e+02 -5.849774728786966307e+02 -5.820623730796176005e+02 -6.659755786150363974e+02 -5.240332799533214256e+02 -4.309009470228177179e+02 -3.826536126900366526e+02
4.383038158050600686e+01 -4.045109842394403472e+02 -4.477036759056899768e+02 1.805192906915677611e+02 2.465777746096512431e+02 -4.260625360927131169e+02 -5.880856908943683266e+02 -5.819506624518224953e+02 -6.692674689152545398e+02 -5.269744538562064236e+02 -4.325659486696728777e+02 -3.834030201667092683e+02
4.993110770585743552e+01 -3.995054977972449706e+02 -4.492140188009130952e+02 1.751432369166830654e+02 2.501220939985723817e+02 -4.244437364562552943e+02 -5.890168071232894818e+02 -5.769161165638665807e+02 -6.670810891772841842e+02 -5.267236635797090685e+02 -4.314302879042924701e+02 -3.825614206258310901e+02
5.511531210290200988e+01 -3.962065751323794416e+02 -4.503984419290462142e+02 1.698643319392108992e+02 2.538793702821132854e+02 -4.239337765353473628e+02 -5.919284895313453490e+02 -5.780053316069136145e+02 -6.718323934599435461e+02 -5.302541986374970975e+02 -4.327964487472559654e+02 -3.835605456719758877e+02
6.031220464802292724e+01 -3.903757350431070563e+02 -4.508937753983377092e+02 1.646006169449428000e+02 2.564900268435299608e+02 -4.209439050581717652e+02 -5.915414247023455800e+02 -5.731173057887967843e+02 -6.712524440141716013e+02 -5.309039282609759312e+02 -4.341358152033708961e+02 -3.839098965957148835e+02
6.207086356617674028e+01 -3.877375339703144164e+02 -4.495856475957585303e+02 1.615184272735404249e+02 2.570175581916662395e+02 -4.187022020843659789e+02 -5.923704262125557989e+02 -5.751880940926520225e+02 -6.757309667525198620e+02 -5.355674752845030753e+02 -4.369894921126386294e+02 -3.856039157463390552e+02
6.333320552545004034e+01 -3.853225024068609059e+02 -4.474537754851599516e+02 1.597379996580754948e+02 2.568025604420748209e+02 -4.162284039253442529e+02 -5.902000150626047343e+02 -5.700181699585621118e+02 -6.751813915816974259e+02 -5.368179298789382301e+02 -4.394575501058940290e+02 -3.858772966370110566e+02
6.094202495785332729e+01 -3.852963693935088827e+02 -4.455721721442062631e+02 1.616970956408633810e+02 2.542324287114216759e+02 -4.150269493064909057e+02 -5.901924255833098414e+02 -5.724005401281700642e+02 -6.782906748644677464e+02 -5.401781580565181002e+02 -4.428828166765284209e+02 -3.876736096662123146e+02
5.732388020583816512e+01 -3.864207079583403583e+02 -4.435839186235809848e+02 1.634073445639625390e+02 2.513619037555353941e+02 -4.149491599787104974e+02 -5.870138835752346722e+02 -5.682887593855433579e+02 -6.773040439856309831e+02 -5.406805704435007556e+02 -4.440945112323858552e+02 -3.893438020573195786e+02
5.271134142483848706e+01 -3.912450507068502361e+02 -4.429853848072215214e+02 1.684274802111382598e+02 2.483689863377042286e+02 -4.166706786029013756e+02 -5.874883522689946176e+02 -5.715391247153830818e+02 -6.814521770845610718e+02 -5.426942460438137914e+02 -4.468049616965543009e+02 -3.928834578575796854e+02
4.827657301079791807e+01 -3.946947366598723761e+02 -4.431589930087617972e+02 1.727059791862730549e+02 2.467554859295558458e+02 -4.196040859927012434e+02 -5.850570392535323663e+02 -5.671612336510377190e+02 -6.800593242397725362e+02 -5.414463288268239012e+02 -4.480250785167330037e+02 -3.940633460887085562e+02
4.549901510891252343e+01 -4.002263821059254383e+02 -4.456485995994409564e+02 1.769109141205225342e+02 2.459616251762606396e+02 -4.225952728494540906e+02 -5.856145109923326117e+02 -5.708634877475267331e+02 -6.833422916236731908e+02 -5.438548465157733744e+02 -4.493341007050865414e+02 -3.967685715749941551e+02
4.515313851746248019e+01 -4.020665258441848096e+02 -4.471576723485900402e+02 1.778258044063530292e+02 2.474396388921255436e+02 -4.243820250280559208e+02 -5.843036103087878246e+02 -5.685254888317075483e+02 -6.820886175242470699e+02 -5.421668671267103718e+02 -4.487332071064686829e+02 -3.981012682545606367e+02
4.637614887440761891e+01 -4.046832512718622752e+02 -4.498564309250518818e+02 1.782491445722445178e+02 2.494563125301176854e+02 -4.277022256441686068e+02 -5.858871185935585117e+02 -5.729629512968311928e+02 -6.853655400638467654e+02 -5.439883509320626445e+02 -4.491461296398110221e+02 -4.006180558570339940e+02
4.966003263662614842e+01 -4.046685339462290472e+02 -4.534725086659440194e+02 1.776509498129514384e+02 2.526181078348256221e+02 -4.291518208254870501e+02 -5.867928992168210698e+02 -5.717803814892748733e+02 -6.854834936552082354e+02 -5.447066304870711519e+02 -4.475906780510269414e+02 -4.008255325661748998e+02
5.112777960420236667e+01 -4.054312315185321722e+02 -4.554245158836562268e+02 1.770745098529785366e+02 2.541362205857011247e+02 -4.315450335914031825e+02 -5.900857415974878677e+02 -5.770639765946583566e+02 -6.906126844688615165e+02 -5.481761278269717650e+02 -4.483958722702390673e+02 -4.025420744766141183e+02
5.210352522757901994e+01 -4.058508438274268997e+02 -4.571485411624521475e+02 1.768912552020598525e+02 2.551962159834679085e+02 -4.317333589978184705e+02 -5.919633654212944975e+02 -5.770162721539196582e+02 -6.915788962233183383e+02 -5.497980324344019891e+02 -4.490565150370365473e+02 -4.028273059133576908e+02
5.062708927628475664e+01 -4.061111723284122377e+02 -4.568783516873048143e+02 1.770947911786291229e+02 2.547682345678073830e+02 -4.309542588323614041e+02 -5.961547317495910647e+02 -5.830585497234613968e+02 -6.978765715153186875e+02 -5.530564586492997705e+02 -4.515755555433792097e+02 -4.045928763386049809e+02
4.998506452474902062e+01 -4.046197838258053707e+02 -4.557706891342652966e+02 1.769883037462872437e+02 2.539167682857319051e+02 -4.297459552473725921e+02 -5.977998378327296223e+02 -5.830350926092866075e+02 -7.008384335630581745e+02 -5.548909368712592141e+02 -4.532929433729557331e+02 -4.060702759469399439e+02
4.871811538051986901e+01 -4.054447376817852842e+02 -4.549521952809285494e+02 1.782717171741415996e+02 2.527250523231703028e+02 -4.302709759065818957e+02 -6.009271769891576014e+02 -5.903372231832144053e+02 -7.078765706337462689e+02 -5.593234719804245287e+02 -4.579219785167126133e+02 -4.086085491053929104e+02
4.787401305966619702e+01 -4.072121315048507881e+02 -4.550654597316611785e+02 1.792054257023413015e+02 2.520299155163460796e+02 -4.310869861170702961e+02 -6.016804170856764813e+02 -5.922347104793890367e+02 -7.121402165653736347e+02 -5.645263626114488034e+02 -4.615418519008604221e+02 -4.100244884631100035e+02
4.556494181334654314e+01 -4.106918822730174270e+02 -4.562296708719645153e+02 1.825880386372807607e+02 2.518648868743041760e+02 -4.335077315487879446e+02 -6.050283418281495642e+02 -6.004358655312183828e+02 -7.223570431570290111e+02 -5.728259630747551228e+02 -4.682091507469442035e+02 -4.126638549351456504e+02
4.378645752410784553e+01 -4.132219518524814816e+02 -4.570590705601564991e+02 1.840690770192337880e+02 2.509360420611784264e+02 -4.350930509006016109e+02 -6.067648938518004798e+02 -6.046020423640266017e+02 -7.292282134933439011e+02 -5.820312481400825391e+02 -4.737026566734029984e+02 -4.151478086913610355e+02
4.176646082136694105e+01 -4.165983415286159470e+02 -4.582845899193840751e+02 1.864995498300723114e+02 2.510114358013566687e+02 -4.374953320908020373e+02 -6.098719313985252484e+02 -6.143821547585512235e+02 -7.377942201584138502e+02 -5.915114595745891393e+02 -4.811560608946933826e+02 -4.174721104222840609e+02
4.214301423716823081e+01 -4.179185100975548721e+02 -4.602241797962855117e+02 1.879645209659531133e+02 2.510423850787295521e+02 -4.389881709427261853e+02 -6.106127763282065644e+02 -6.172478850402333137e+02 -7.418518644898113052e+02 -5.974396658421984512e+02 -4.852390195300458799e+02 -4.190256415748609697e+02
4.193305965436885430e+01 -4.194661433311180758e+02 -4.623551191873559674e+02 1.881230697137582979e+02 2.522281989690155797e+02 -4.403983531489923848e+02 -6.126611998835737722e+02 -6.251009657364661507e+02 -7.483950170618099946e+02 -6.040369017728964991e+02 -4.884789461109281774e+02 -4.202639521075970492e+02
4.327634837711899962e+01 -4.221800516027996650e+02 -4.653757496308755890e+02 1.891110156837650322e+02 2.542646532053480541e+02 -4.432911944948276641e+02 -6.113007440164271884e+02 -6.271052452550597991e+02 -7.494117637370027296e+02 -6.057212613931584428e+02 -4.888452509555122560e+02 -4.209895821862435241e+02
4.394545278568265445e+01 -4.243543320838476234e+02 -4.683087246940985438e+02 1.900729179497544123e+02 2.561732091576555490e+02 -4.464204572301828762e+02 -6.115083391277670444e+02 -6.339161597336797058e+02 -7.543316390043825095e+02 -6.075489875768038246e+02 -4.903603563887404562e+02 -4.222373318355499237e+02
4.406702911600449113e+01 -4.260209527268140732e+02 -4.701609399680936576e+02 1.900178484681975419e+02 2.570945333817260803e+02 -4.479819237335959770e+02 -6.091789951082973857e+02 -6.361996570585934023e+02 -7.565325907667900083e+02 -6.076775217807146419e+02 -4.908976072499654606e+02 -4.230168651688787804e+02
4.393690947442567563e+01 -4.260039665609254484e+02 -4.709557438333234813e+02 1.910812514817968406e+02 2.580458021823986883e+02 -4.480430800016694093e+02 -6.072047402223892050e+02 -6.438486586168891108e+02 -7.611058909585296988e+02 -6.095379113222207934e+02 -4.922618149027285313e+02 -4.241122410807614642e+02
4.406106296321298288e+01 -4.247729315543217012e+02 -4.687539189512020243e+02 1.897836168065272489e+02 2.567995190382441706e+02 -4.467243618377724488e+02 -6.019762282289016184e+02 -6.449711983620811679e+02 -7.613006823139115795e+02 -6.096430926760324382e+02 -4.917860620649023531e+02 -4.227560706740114256e+02
4.391650050516033588e+01 -4.228817291314509248e+02 -4.679742862951246138e+02 1.890243309362569164e+02 2.560034842411951104e+02 -4.449502172140568632e+02 -5.993114867932200696e+02 -6.505805884130024879e+02 -7.638749706159117068e+02 -6.103648400845896731e+02 -4.921642533813195541e+02 -4.219937624919569430e+02
4.292012065916700436e+01 -4.219539911631851510e+02 -4.657280735894833015e+02 1.889745378816505479e+02 2.548057265764843748e+02 -4.438312801223621022e+02 -5.963327771000459734e+02 -6.498260141828391170e+02 -7.621444244700163608e+02 -6.096722796309969681e+02 -4.906880179177699688e+02 -4.196911567993315657e+02
4.190939832981854352e+01 -4.219911458484125433e+02 -4.650826256059331740e+02 1.890093210781024027e+02 2.540703048711021665e+02 -4.430442124194505595e+02 -5.976523177369856512e+02 -6.556916845919647585e+02 -7.638763508369237343e+02 -6.114408503406310729e+02 -4.901566553493645415e+02 -4.179451162951692140e+02
4.095386825103636141e+01 -4.208993278079618108e+02 -4.637187854106755367e+02 1.890183272674385080e+02 2.538472328326047602e+02 -4.428897891210186231e+02 -5.975376638102342213e+02 -6.580654184528456199e+02 -7.632383843996747146e+02 -6.105906337230029521e+02 -4.898112720139446310e+02 -4.157875991205815467e+02
4.102851808379713816e+01 -4.198821838306864151e+02 -4.608985269468980164e+02 1.889031039286633984e+02 2.519453620740035831e+02 -4.408340466200590413e+02 -6.018410751324319108e+02 -6.656441426467856672e+02 -7.648027119566977490e+02 -6.114048752646498315e+02 -4.890624684148990013e+02 -4.150154115818834271e+02
4.099117337562891805e+01 -4.156235241507606020e+02 -4.576414111440379315e+02 1.857694445225011464e+02 2.508522827887535129e+02 -4.366243849055185251e+02 -6.024318533432013965e+02 -6.680488977541288023e+02 -7.642960768110485787e+02 -6.105519815398047285e+02 -4.877808039163801368e+02 -4.127412246227066248e+02
4.210122286071389652e+01 -4.096502727708005409e+02 -4.516776572237140499e+02 1.828479727350683390e+02 2.478151845966582982e+02 -4.306873883151002360e+02 -6.046831682195153235e+02 -6.766240868496628309e+02 -7.657052336901352874e+02 -6.081137565175191639e+02 -4.848478579187548121e+02 -4.098827420128179142e+02
4.191043366171175677e+01 -4.026130757618808502e+02 -4.445678665734762376e+02 1.798282752488388780e+02 2.437712210059414701e+02 -4.246458853580123218e+02 -6.033289285648203304e+02 -6.789498485853947614e+02 -7.631898687570710536e+02 -6.034581285870299325e+02 -4.796511729441819512e+02 -4.056973522447298706e+02
4.209351845468624731e+01 -3.957167736509926499e+02 -4.377591798750268026e+02 1.757982862670581596e+02 2.409134976539631623e+02 -4.176914766549430169e+02 -6.046703594939608593e+02 -6.865091753572775133e+02 -7.626224381406586872e+02 -5.990417582665675127e+02 -4.748360208932388673e+02 -4.008194907041378769e+02
4.189875573942812537e+01 -3.897698431050874888e+02 -4.306673231581050345e+02 1.729567750415033345e+02 2.367840201467134023e+02 -4.107392828712680171e+02 -6.033277445040631619e+02 -6.889387905862519119e+02 -7.592140940885508371e+02 -5.913980623840833459e+02 -4.686970729575590440e+02 -3.957788728238874683e+02
4.211040977923438078e+01 -3.838178534849335506e+02 -4.259694338619892164e+02 1.708796196798320750e+02 2.350472818961934536e+02 -4.058819266989974039e+02 -6.046758020581580695e+02 -6.974654347074956604e+02 -7.586414129123269277e+02 -5.850993905783228684e+02 -4.639192034029939578e+02 -3.919186019724910466e+02
4.187982251482700491e+01 -3.809792473325387618e+02 -4.228316147048733455e+02 1.690117386463639377e+02 2.328417564500878711e+02 -4.018831047898683551e+02 -6.033156419365587908e+02 -7.009222224745611811e+02 -7.562989318358588662e+02 -5.795962263731634039e+02 -4.598625418539270981e+02 -3.889051312152846549e+02
4.212993076835582684e+01 -3.778745959064585236e+02 -4.200340670358405646e+02 1.668853541361244197e+02 2.321034796195802414e+02 -3.989597771049232051e+02 -6.036421987680175789e+02 -7.103812139248957465e+02 -7.566408925958430700e+02 -5.762028935354588839e+02 -4.580059354692857028e+02 -3.859393518266997489e+02
4.186232669333821121e+01 -3.750208308848422689e+02 -4.178811909348581821e+02 1.660809628441334951e+02 2.308585401683856162e+02 -3.959382720274823555e+02 -6.002879159561490496e+02 -7.128312002282319781e+02 -7.532972842203440678e+02 -5.726856313667317409e+02 -4.549100138642768343e+02 -3.829643032829748677e+02
4.316906436415214898e+01 -3.708756656051564278e+02 -4.150516231620020449e+02 1.638609112433560711e+02 2.301208027719810332e+02 -3.929808002134263916e+02 -5.996636774861425465e+02 -7.202696246454598850e+02 -7.506024349126798825e+02 -5.681931402056115985e+02 -4.519969373132252599e+02 -3.799473719011788262e+02
4.484168426192157142e+01 -3.650664234868856397e+02 -4.098906378426929678e+02 1.590989477077277741e+02 2.288623817873811106e+02 -3.879693182124178179e+02 -5.953011083608913623e+02 -7.207905585791351086e+02 -7.443486180037549502e+02 -5.617449198488021693e+02 -4.459532711760011807e+02 -3.750114379459841416e+02
4.816928812947444527e+01 -3.569218980823998209e+02 -4.061057387410463662e+02 1.538842105454700118e+02 2.281422607787245624e+02 -3.820255639822952389e+02 -5.936956721550734528e+02 -7.251946397493624090e+02 -7.406392050236921705e+02 -5.532465671419251976e+02 -4.400322279679087956e+02 -3.689724573354767472e+02
5.078465315753724241e+01 -3.501677878945912425e+02 -4.019409540023048635e+02 1.491912845872461446e+02 2.268617278257725900e+02 -3.760431109018826419e+02 -5.913131021805467071e+02 -7.257848237697832019e+02 -7.334434050870756892e+02 -5.438687524070434165e+02 -4.320764063857984070e+02 -3.631157668299504166e+02
5.415677075273230656e+01 -3.429850147965603355e+02 -3.981487324727857526e+02 1.429268884260912102e+02 2.271423205982150648e+02 -3.710754965121726059e+02 -5.917094709177482628e+02 -7.311268832030933709e+02 -7.286800195580487980e+02 -5.353227044049594952e+02 -4.240881548973059694e+02 -3.560234242906209374e+02
5.672642451721685575e+01 -3.372271302466749603e+02 -3.949600435498811066e+02 1.392286498909892032e+02 2.268603597534500125e+02 -3.660891748130381984e+02 -5.902846001999159853e+02 -7.327429229414534575e+02 -7.225140373432551542e+02 -5.279375615937558450e+02 -4.181446274336589681e+02 -3.511745047798318069e+02
5.921035427352027369e+01 -3.329579742039393295e+02 -3.921812745464927161e+02 1.358929019648138592e+02 2.261883649250356996e+02 -3.630702943086576511e+02 -5.926696779169697038e+02 -7.400019178677255240e+02 -7.187022749290240426e+02 -5.223316208451218472e+02 -4.121186643819058872e+02 -3.460461968576321397e+02
5.782275050169388209e+01 -3.302163672892411910e+02 -3.890040064704602969e+02 1.351725505684854909e+02 2.239452474645186726e+02 -3.591468616212271741e+02 -5.932036566992647977e+02 -7.436634035562569807e+02 -7.135537082683893004e+02 -5.169806278073502881e+02 -4.071963184386798389e+02 -3.412682466917683541e+02
5.634837145433380101e+01 -3.288523404367468856e+02 -3.852782337855270498e+02 1.357503093135701704e+02 2.203109668324493100e+02 -3.569948983173944157e+02 -5.975945365977524943e+02 -7.518832223134201058e+02 -7.107192048312173256e+02 -5.123736371380268793e+02 -4.021487466175989312e+02 -3.360614237229747232e+02
5.195813579090496148e+01 -3.291606258271006595e+02 -3.810387748366777600e+02 1.380975397415791122e+02 2.169667097564516212e+02 -3.561161672689377724e+02 -5.991477517769235419e+02 -7.565563764122319981e+02 -7.056241936755966435e+02 -5.061306828565116689e+02 -3.972767648239029654e+02 -3.322994234418573001e+02
4.840981576175398970e+01 -3.288435312504663557e+02 -3.782752799890864139e+02 1.397154938701603157e+02 2.133865231939335274e+02 -3.540472393191278684e+02 -6.035824152412830017e+02 -7.657713443304699013e+02 -7.027496255082141943e+02 -5.004161974186918087e+02 -3.921938494380142401e+02 -3.280594948581540393e+02
4.583012974799726180e+01 -3.282578532719951454e+02 -3.741351841276338632e+02 1.411715524109930300e+02 2.099497362634020021e+02 -3.522006349283245754e+02 -6.041982187241568454e+02 -7.696017793237251681e+02 -6.976737460231960313e+02 -4.951487511508014450e+02 -3.873346766633109155e+02 -3.243969677329925503e+02
4.353909131695760237e+01 -3.268567947433583640e+02 -3.703432180029103051e+02 1.417051739104677495e+02 2.074166089554288419e+02 -3.491058037999395651e+02 -6.066771401884504940e+02 -7.767707566474211944e+02 -6.956908435044782664e+02 -4.904172493551253069e+02 -3.831519345745504666e+02 -3.200224624013490597e+02
3.894604019052290766e+01 -3.262720618941120847e+02 -3.661976738105683467e+02 1.431607761285878553e+02 2.031115593822112828e+02 -3.472156407775387947e+02 -6.061732080247008980e+02 -7.796081321370676278e+02 -6.917084259046637271e+02 -4.861338470891129759e+02 -3.793739403174811287e+02 -3.183101820071990460e+02
3.568871391261392745e+01 -3.257054577698647222e+02 -3.614877679460503828e+02 1.445304772556517605e+02 1.985662761770173574e+02 -3.441406584901317842e+02 -6.095538102281485635e+02 -7.857839835625795786e+02 -6.897126436010865973e+02 -4.824428632573748246e+02 -3.751990990366415986e+02 -3.158987087820842135e+02
2.915609327728981626e+01 -3.280158334673388936e+02 -3.571217611678943626e+02 1.488911221338992448e+02 1.940865719871583792e+02 -3.430638034460352515e+02 -6.109676231235059731e+02 -7.876142617742590346e+02 -6.857617415159048733e+02 -4.773205028697080934e+02 -3.714023022554790145e+02 -3.162058984065326968e+02
2.472471569896391230e+01 -3.304923145599256031e+02 -3.552286851735254345e+02 1.524561834086141232e+02 1.905393666025188111e+02 -3.429043726917136610e+02 -6.164187344520302076e+02 -7.937020409878952023e+02 -6.837213279666129893e+02 -4.725096194093695203e+02 -3.681293956780644407e+02 -3.148516459922275885e+02
1.993676243198849107e+01 -3.339644470355558497e+02 -3.547669293690429413e+02 1.559562219239601859e+02 1.878525990584587646e+02 -3.447739445782523262e+02 -6.179854244466040427e+02 -7.955998113366952111e+02 -6.806223844374286500e+02 -4.673841344083452896e+02 -3.653632633624957293e+02 -3.160843563995355794e+02
1.855560152922437567e+01 -3.372596641273310638e+02 -3.569110366731021600e+02 1.593407160349734113e+02 1.873433399940106199e+02 -3.476735094960832271e+02 -6.232881725706675979e+02 -8.016025632755903416e+02 -6.814365568084589313e+02 -4.633387186115666054e+02 -3.638699648748781783e+02 -3.158267635045721704e+02
1.495326013011566602e+01 -3.427948483959081614e+02 -3.586604355864366198e+02 1.629898301525634849e+02 1.866645714814457335e+02 -3.506915251759840544e+02 -6.259099762757170993e+02 -8.044209208527596502e+02 -6.805114059330061309e+02 -4.619184300984043148e+02 -3.641214740596621482e+02 -3.170300638894241274e+02
1.358965298410761768e+01 -3.462705486704221585e+02 -3.609475990786662010e+02 1.661894572151792033e+02 1.873988554281501138e+02 -3.544990867831804167e+02 -6.304344405334530848e+02 -8.115141847860694497e+02 -6.831189914884089376e+02 -4.628926177717784753e+02 -3.647225376139051605e+02 -3.177457354034106061e+02
9.222726731569357739e+00 -3.516435793186161050e+02 -3.617745621447227222e+02 1.709017736960338709e+02 1.849387105929088477e+02 -3.578109043725787046e+02 -6.311087639898690895e+02 -8.135532007457962891e+02 -6.844471675394136128e+02 -4.646569692334287538e+02 -3.652153956411461877e+02 -3.182654977723769889e+02
5.734961444955371412e+00 -3.561894840057793772e+02 -3.630256557348234878e+02 1.741306386111795064e+02 1.843895185162789687e+02 -3.596655992337617249e+02 -6.336114061877863151e+02 -8.194870290232395291e+02 -6.862707389448440836e+02 -4.676833089341579353e+02 -3.655791346881698587e+02 -3.169209590243536354e+02
2.046867824413155734e+00 -3.600169229815348331e+02 -3.629435894023429228e+02 1.789197082501663374e+02 1.820571714020611296e+02 -3.618925254310133823e+02 -6.331738011556333277e+02 -8.215349267659061070e+02 -6.864907181664533482e+02 -4.697699569309197045e+02 -3.672022539119577687e+02 -3.163557605880762935e+02
-2.778719680835424755e-01 -3.614278624139880094e+02 -3.623211251824785109e+02 1.804961431891388486e+02 1.804505023444669973e+02 -3.620445760227553365e+02 -6.347781004438551236e+02 -8.266627772001100993e+02 -6.882556989006759522e+02 -4.717283610025523899e+02 -3.667331812878736059e+02 -3.148798043097274899e+02
-3.163246731302505221e+00 -3.633348182144152361e+02 -3.601762162494707127e+02 1.821840637358023969e+02 1.788952309022591862e+02 -3.611934700596958692e+02 -6.332324634129288370e+02 -8.267351941300921681e+02 -6.877418418807878879e+02 -4.729867128248794756e+02 -3.673268380218187303e+02 -3.144454958207028881e+02
-3.498887593981660160e+00 -3.618305783495425771e+02 -3.584198640409870222e+02 1.826042378621038438e+02 1.776059906019460186e+02 -3.601339797315988562e+02 -6.347633812607357413e+02 -8.307669667060183656e+02 -6.874832816992521884e+02 -4.729725891608695747e+02 -3.658712053509712518e+02 -3.120545513948785583e+02
-5.235315122255066456e+00 -3.615449462314996936e+02 -3.561340171347210912e+02 1.825491600067417153e+02 1.757075865747179364e+02 -3.583777171055077702e+02 -6.332395486979144152e+02 -8.290915170674550154e+02 -6.858671171384563650e+02 -4.723695155225740905e+02 -3.655303408928940598e+02 -3.105823543451413116e+02
-4.747791930867416355e+00 -3.589594971937410151e+02 -3.552451068833347563e+02 1.815548716893479479e+02 1.763833469709548467e+02 -3.569997782010894980e+02 -6.347561423054277157e+02 -8.316918294676895584e+02 -6.846835521510987519e+02 -4.694002140768318441e+02 -3.622282400653797936e+02 -3.079732145237297800e+02
-4.484566379365841016e+00 -3.584623873041825846e+02 -3.540353387767887057e+02 1.817071923677119685e+02 1.748361781646688371e+02 -3.562932066022816571e+02 -6.332541091473636925e+02 -8.302846180012397781e+02 -6.819835961967507956e+02 -4.673730680909621356e+02 -3.605439705278137694e+02 -3.074691622606670762e+02
-3.623590624054048526e+00 -3.568021974326536565e+02 -3.539993435169610621e+02 1.795927937896047411e+02 1.752176228045400990e+02 -3.557166409603142938e+02 -6.347083210765640615e+02 -8.309497854283613378e+02 -6.806728185907084026e+02 -4.645363652260461436e+02 -3.573774391856157990e+02 -3.050759948807107662e+02
-3.633429039240150704e+00 -3.572898118935938214e+02 -3.547038352218289106e+02 1.805141758628565753e+02 1.754687415145247371e+02 -3.570500630981561017e+02 -6.340151661803456591e+02 -8.291747650103933438e+02 -6.780265186305880434e+02 -4.615312761167048734e+02 -3.546467928184175662e+02 -3.043609264791784881e+02
-1.779143397284214556e+00 -3.566643308585827299e+02 -3.559313192623621944e+02 1.787470094661483699e+02 1.771910099121395774e+02 -3.568062526288244385e+02 -6.366040166159075397e+02 -8.300593767783017256e+02 -6.766918745302227762e+02 -4.585332786685430051e+02 -3.521420513818194422e+02 -3.029813450624124584e+02
-8.839857996936826279e-01 -3.574241421439285205e+02 -3.566976760393204700e+02 1.786844819369573827e+02 1.773799257739012774e+02 -3.579975406133292495e+02 -6.360661772799958271e+02 -8.280247286342189454e+02 -6.740168253650437009e+02 -4.555597169714324650e+02 -3.505382762058413846e+02 -3.023549783743310968e+02
2.104533197716200732e+00 -3.551852479112360470e+02 -3.579392687781518134e+02 1.759958465836064647e+02 1.799840553751485288e+02 -3.572049464679138850e+02 -6.378611330425135293e+02 -8.299992929641209685e+02 -6.734372269222416207e+02 -4.532364924591952899e+02 -3.489715374336532250e+02 -3.017555874107113141e+02
3.110159888294342423e+00 -3.536242800252533698e+02 -3.580419451490665779e+02 1.748027795822491441e+02 1.805073441523079225e+02 -3.562308602227485608e+02 -6.361427675833050444e+02 -8.272813233249547693e+02 -6.719417207790526163e+02 -4.522206199731680840e+02 -3.476805096386297578e+02 -3.015202548230108164e+02
6.080022241932033999e+00 -3.512239387320969968e+02 -3.572331809564411742e+02 1.720474136221128845e+02 1.821557301469403001e+02 -3.551787565044972439e+02 -6.378933915948794038e+02 -8.288442440471619648e+02 -6.714793057202128921e+02 -4.511882147799408358e+02 -3.458335071906818143e+02 -3.005599076114186232e+02
7.074288268375539701e+00 -3.489280145467145644e+02 -3.569484806238681927e+02 1.700892266442365894e+02 1.817458119873004705e+02 -3.536366744832785116e+02 -6.354398077527914666e+02 -8.264836403606637987e+02 -6.698899590985380428e+02 -4.501784179444009055e+02 -3.455516900081408380e+02 -3.014748597674570192e+02
1.010333611473028448e+01 -3.454427105876814039e+02 -3.557052486335954313e+02 1.668700401756769622e+02 1.822719166885827917e+02 -3.505281911866963469e+02 -6.360065736607878080e+02 -8.269229318557501074e+02 -6.702364020228918662e+02 -4.499639400184302076e+02 -3.439072664503665919e+02 -2.998284991948509628e+02
1.037055073290598273e+01 -3.421582540609448984e+02 -3.532531851545427912e+02 1.659965612023264327e+02 1.817540542065146099e+02 -3.484891554318024305e+02 -6.334326328577441245e+02 -8.251850934143149061e+02 -6.690998731096799474e+02 -4.493173283629240586e+02 -3.434699322179142769e+02 -3.002792493600693433e+02
1.217306154975038801e+01 -3.383933424243442118e+02 -3.510208184241433855e+02 1.629143273836143919e+02 1.816156284270176684e+02 -3.458092132576534823e+02 -6.340121516802763608e+02 -8.262192374704327449e+02 -6.683739726941984145e+02 -4.488424799190353838e+02 -3.426868032158770916e+02 -2.997066614644523952e+02
1.241741054981092596e+01 -3.352664372976265099e+02 -3.473332093919606223e+02 1.620189697838966367e+02 1.798572882261080395e+02 -3.419330295490464096e+02 -6.315008069219088611e+02 -8.225742685945930361e+02 -6.670860898723065020e+02 -4.485001244591118734e+02 -3.426069160717420914e+02 -3.002550797970129679e+02
1.342437274807375047e+01 -3.313863235477220428e+02 -3.457906063672810433e+02 1.589338259810372165e+02 1.796311358222035039e+02 -3.386289659939402554e+02 -6.313186342006806626e+02 -8.230799331782678792e+02 -6.663982154414662773e+02 -4.470005999185976862e+02 -3.415596915964257505e+02 -3.003998977383071747e+02
1.323960256280648196e+01 -3.283166762193494606e+02 -3.424599661923795679e+02 1.580487184856453950e+02 1.778154332510719939e+02 -3.357670684956037235e+02 -6.282820948791938918e+02 -8.197096331828857956e+02 -6.650585679086965456e+02 -4.464924657009599969e+02 -3.418107203273943924e+02 -3.014911283306537939e+02
1.515831075404285677e+01 -3.250129522449041701e+02 -3.412998103127358718e+02 1.549533976366230661e+02 1.782916417196387329e+02 -3.333708272663443495e+02 -6.292216823310595828e+02 -8.199850879306455909e+02 -6.650350816368495543e+02 -4.449681512051917025e+02 -3.396650666604007256e+02 -3.004905070828342559e+02
1.601252600952365057e+01 -3.232948959735188623e+02 -3.401473227561364183e+02 1.540716034530110505e+02 1.777011460686873363e+02 -3.315834912738721982e+02 -6.262275584535676671e+02 -8.168615797549198305e+02 -6.649737115243796097e+02 -4.451452391343631234e+02 -3.404861881528430558e+02 -3.020928596985996251e+02
1.824468525006438213e+01 -3.199470262618961556e+02 -3.394219784892824805e+02 1.509929387598495225e+02 1.782521268388898648e+02 -3.300741336907479422e+02 -6.279600228738872829e+02 -8.167755139228069083e+02 -6.649600567429540661e+02 -4.448345698551274836e+02 -3.388802849967225370e+02 -3.024073891277359394e+02
1.890005906657188461e+01 -3.190178426978338280e+02 -3.380441495871237407e+02 1.500283800956820528e+02 1.783709289593893743e+02 -3.294318188319926435e+02 -6.253677703041336144e+02 -8.153034980127530389e+02 -6.656904928223551678e+02 -4.451681479201794218e+02 -3.392051681450165006e+02 -3.034557487906544111e+02
2.135556897450018710e+01 -3.167374039532909364e+02 -3.381324052910298406e+02 1.476916584766193523e+02 1.794849527208296252e+02 -3.281336751655238118e+02 -6.268236179950177984e+02 -8.167050545802153465e+02 -6.661057834677586698e+02 -4.448426769865706660e+02 -3.393990083820689847e+02 -3.030761210431010113e+02
2.119828498475983380e+01 -3.161772246020332204e+02 -3.372829924357833420e+02 1.472584243089168865e+02 1.785424764859836841e+02 -3.274159872575702934e+02 -6.250614197115030493e+02 -8.152390197222283632e+02 -6.665027043765069266e+02 -4.451095050026876265e+02 -3.404100082298540997e+02 -3.059521332105856004e+02
2.257792769169056157e+01 -3.135624390716112657e+02 -3.362750405593833989e+02 1.444119053880853585e+02 1.794493676341141395e+02 -3.261696671988235607e+02 -6.275896714072740679e+02 -8.173644059696472368e+02 -6.678826013055917201e+02 -4.454587337648061975e+02 -3.401848812618419515e+02 -3.063231957448700769e+02
2.207247548955131222e+01 -3.140000564627900985e+02 -3.358825170205860218e+02 1.457518847286036419e+02 1.785538810642479746e+02 -3.253999060217871602e+02 -6.261721389864851517e+02 -8.164783567823069461e+02 -6.685419531620985936e+02 -4.469116397471353821e+02 -3.421791282716021101e+02 -3.081169214299097803e+02
2.371745383871495250e+01 -3.115581573429997206e+02 -3.355781594138665582e+02 1.436502418387751732e+02 1.794399362393446893e+02 -3.242241962598272380e+02 -6.284563490280089582e+02 -8.175426051343248446e+02 -6.698930250530064541e+02 -4.475580450746236352e+02 -3.422868092680910195e+02 -3.083089394216444816e+02
2.239209092935870515e+01 -3.126001690909271247e+02 -3.339968556611155464e+02 1.444866305751188804e+02 1.785936396250492919e+02 -3.233197060141541783e+02 -6.273948579750899626e+02 -8.164891033971621255e+02 -6.699655757768124431e+02 -4.482660666451869815e+02 -3.435546737017741066e+02 -3.095675000214164356e+02
2.302430922414038150e+01 -3.113204181412042999e+02 -3.341951459693098627e+02 1.440002467333589493e+02 1.788996008679573038e+02 -3.228633257649269694e+02 -6.281007898087467538e+02 -8.169941114661136226e+02 -6.700855173838469909e+02 -4.478339426974247885e+02 -3.424854293427400762e+02 -3.084256045800582342e+02
