7.999999999999954525e+01 -2.999999999999876721e+01 -1.099999999999985647e+02 -2.500000000000060751e+01 9.599999999999890576e+01 -6.899999999999832312e+01 1.050000000000043343e+02 4.020000000000038085e+02 2.600000000000326139e+01 -5.999999999999750599e+01 -6.699999999999820943e+01 -6.699999999999903366e+01
7.451259994337672765e+01 -2.378096838899963927e+01 -9.789511152866312216e+01 -2.555670055157213483e+01 8.795911461988339397e+01 -5.959747849214080873e+01 9.671459220961837389e+01 3.668295537266895394e+02 1.654346541878403087e+01 -6.205226008999555631e+01 -6.353041024563483319e+01 -6.102829790092742002e+01
6.703745161206242642e+01 -2.312741854011376574e+01 -8.917452450049299273e+01 -2.100420904486024298e+01 8.010036954048008795e+01 -5.514587205525906199e+01 8.420347446288619153e+01 3.346659284931427010e+02 1.322610580861173268e+01 -6.291477507331844521e+01 -6.494928638971268242e+01 -6.002646285566303419e+01
6.360832073271500775e+01 -2.145233078190274512e+01 -8.398553013294949210e+01 -1.840022526174131912e+01 7.557984794113758653e+01 -5.197640831066774325e+01 7.657659968047987320e+01 3.126545538320373794e+02 8.964009311822771053e+00 -6.446649046089360979e+01 -6.615913212964649404e+01 -5.938209595503450089e+01
6.378136358305557252e+01 -1.831458275555290527e+01 -8.110228235797967500e+01 -1.969888592686287510e+01 7.394101748310401945e+01 -4.919797026339028889e+01 7.487889692401469688e+01 3.003649642485624440e+02 3.472059362868269439e+00 -6.677718298236204930e+01 -6.599762020878117141e+01 -5.716780516745681950e+01
6.542207337906806686e+01 -1.592241226381662322e+01 -7.994630617358832581e+01 -2.302589767906637874e+01 7.420167499305756564e+01 -4.772669656543722283e+01 7.533464172295315109e+01 2.946898600503847092e+02 -1.184320191019591073e+00 -7.025538176580819538e+01 -6.746521982741138856e+01 -5.523594775484141906e+01
6.579725224775165771e+01 -1.700148014414452291e+01 -8.082273136358517718e+01 -2.386720042763431238e+01 7.481683202431540280e+01 -4.891566671067761263e+01 7.401372654566631581e+01 2.920334989682752393e+02 -2.680370326882329124e+00 -7.452456387563985629e+01 -7.163369914040508490e+01 -5.588372893894818816e+01
6.738658976979819215e+01 -1.876013936006388150e+01 -8.428850379079013067e+01 -2.346946678349400273e+01 7.695092234099233508e+01 -5.133082685432601266e+01 7.302743946018570398e+01 2.917859407755402685e+02 -5.852292670314092504e+00 -8.023712251019968278e+01 -7.581423209679141451e+01 -5.844863859667781014e+01
6.958114236904864924e+01 -2.175926392114747188e+01 -9.025811997785005758e+01 -2.200687375850865024e+01 8.044750379265788354e+01 -5.552267123518146263e+01 7.284047684197345518e+01 2.927653848533985865e+02 -1.112248462632386570e+01 -8.626692644988577285e+01 -7.870747836865454872e+01 -6.251956219574257290e+01
7.180720308581543065e+01 -2.632802386214273227e+01 -9.751782774805279530e+01 -2.037328681180978052e+01 8.525194595496127192e+01 -6.163994548983855282e+01 7.337199737457147819e+01 2.945076082938731474e+02 -1.761559897280493558e+01 -9.254102655375533004e+01 -8.233801007204976941e+01 -6.801014118440731693e+01
7.185222145539646021e+01 -3.330077160795924840e+01 -1.042236918769621496e+02 -1.721895223768424543e+01 8.940928466645027584e+01 -6.918065584385635702e+01 7.291927678085747289e+01 2.957625285323044295e+02 -2.139489547032786376e+01 -9.819928324138457754e+01 -8.816566414050409151e+01 -7.428985215299982769e+01
7.257775709556064214e+01 -3.812950102235093652e+01 -1.093668008551422872e+02 -1.554613724602895175e+01 9.299848199837705920e+01 -7.448575442653282153e+01 7.322313345976202470e+01 2.971455237014979502e+02 -2.466869162097851387e+01 -1.033388797765390592e+02 -9.387420461479310063e+01 -7.874841029924624536e+01
7.439800893477772092e+01 -4.010330310121254627e+01 -1.134011217856470068e+02 -1.564083977693544725e+01 9.553730274776246745e+01 -7.690987960143657176e+01 7.376792258750869280e+01 2.979029105643742241e+02 -2.731955486263936805e+01 -1.065596784751477486e+02 -9.681431622306908480e+01 -8.084482197686108407e+01
7.733273265123428075e+01 -4.005716751106698581e+01 -1.169971741105229057e+02 -1.709274158915611252e+01 9.779129749271821481e+01 -7.774319853034974415e+01 7.432043581803181098e+01 2.971099353411207744e+02 -3.053413382233846107e+01 -1.084663701386197090e+02 -9.740361207119987341e+01 -8.199014421873160074e+01
7.792691708776736448e+01 -4.175361783241170599e+01 -1.196843796246788969e+02 -1.619117282167057681e+01 9.880805750628243800e+01 -7.966589618633943815e+01 7.317021288572581739e+01 2.922937311999102121e+02 -3.238649402723626025e+01 -1.096457908834245814e+02 -9.787092387699654239e+01 -8.373007658175613699e+01
7.730188458622120606e+01 -4.358619212628085648e+01 -1.205950287270398604e+02 -1.441422551052236933e+01 9.923578418181300265e+01 -8.162956569827879605e+01 7.160124249132853436e+01 2.833959729582294358e+02 -3.546593761017149404e+01 -1.113422800078568144e+02 -9.852693490522568709e+01 -8.488324338606039987e+01
7.597630169228196451e+01 -4.506211430573297605e+01 -1.201331006301972195e+02 -1.289774705938169141e+01 9.894180272335518112e+01 -8.296636467022646855e+01 6.866686120342821198e+01 2.708595550335753046e+02 -3.893400580298825275e+01 -1.119836783017435664e+02 -9.825049568775246200e+01 -8.505536318240716298e+01
7.579357823222670731e+01 -4.499107742969027157e+01 -1.197369387915174741e+02 -1.326982605070955223e+01 9.897782524300235707e+01 -8.318275552813035745e+01 6.444854316836492103e+01 2.565792922931568683e+02 -4.322080152439312428e+01 -1.111601350213687738e+02 -9.676453901584595485e+01 -8.523409122411020178e+01
7.436065172872200435e+01 -4.586467456948932409e+01 -1.199430653062755567e+02 -1.232025849994557198e+01 9.821928582388265738e+01 -8.388163326753753779e+01 5.833418160818533948e+01 2.407844292607798309e+02 -4.604985422534364403e+01 -1.092379793512322550e+02 -9.527048000079962264e+01 -8.665503804510450436e+01
7.189564825945340942e+01 -4.717069204728124276e+01 -1.199342297856299098e+02 -9.899194578358088137e+00 9.660860950322265239e+01 -8.463615676365961349e+01 5.277002342793333867e+01 2.247294739897381248e+02 -5.002033834030564208e+01 -1.087474025868964276e+02 -9.442192410234059707e+01 -8.784674169668375043e+01
6.784333016725085486e+01 -5.020761925752128008e+01 -1.192230616672374737e+02 -5.832540797745580541e+00 9.367634994336071941e+01 -8.578976449199555532e+01 4.732285170152487552e+01 2.088780612645428505e+02 -5.446939313794933923e+01 -1.095560233763847577e+02 -9.406143732010058045e+01 -8.805290056207914517e+01
6.465513997322194939e+01 -5.384507601190345838e+01 -1.185355354300908317e+02 -2.682640443923773876e+00 9.122966185129733674e+01 -8.679756408843701365e+01 4.180986583286967573e+01 1.948437884435230103e+02 -5.951427151959778428e+01 -1.110062415860321039e+02 -9.400874933294907976e+01 -8.833025464884971711e+01
6.158719386325541478e+01 -5.824108791451355671e+01 -1.181918001954557838e+02 4.281173013727451737e-01 8.932406266479458168e+01 -8.797503344279549253e+01 3.546229235525098744e+01 1.828347106919462988e+02 -6.217479214014174005e+01 -1.117048944408963962e+02 -9.466832971914337236e+01 -9.031889854640434123e+01
5.938194692646459316e+01 -5.996768680105063964e+01 -1.169214114897797714e+02 2.258984950849185935e+00 8.802049736702083749e+01 -8.746459188677754071e+01 3.123015296929876072e+01 1.743133441409512443e+02 -6.477525808873271274e+01 -1.127965126347820330e+02 -9.601000917504168797e+01 -9.232950599398911606e+01
5.659106182909869176e+01 -5.902127294414092518e+01 -1.134595266472241519e+02 3.264802918615318905e+00 8.573658695915311512e+01 -8.514600266910233017e+01 2.919405635826329970e+01 1.695376442885321353e+02 -6.759300050860851172e+01 -1.143087151821310812e+02 -9.756568161245388637e+01 -9.242965457388527284e+01
5.486895649513662931e+01 -5.578691559261016408e+01 -1.088448627504906483e+02 2.186791624370750586e+00 8.333516618086495953e+01 -8.165953450535646141e+01 2.829373329810829674e+01 1.689089133549014718e+02 -7.177197560570739654e+01 -1.163342877582569486e+02 -9.880917710865776371e+01 -9.102529439501688557e+01
5.381908855271911563e+01 -5.367271504087864997e+01 -1.055494036150452217e+02 1.341043696919757444e+00 8.128980245427291607e+01 -7.949985486246929156e+01 2.583395144111361219e+01 1.702356598678014450e+02 -7.421524157678173594e+01 -1.175702426757733150e+02 -9.974520612708046485e+01 -9.077272581636000837e+01
5.441871634182235340e+01 -5.218391604238440351e+01 -1.046659518941590648e+02 8.610828193637303229e-01 8.068537129048921486e+01 -7.847357424684315674e+01 2.354958104007013020e+01 1.723837050470638133e+02 -7.604867363194158258e+01 -1.187567578853868895e+02 -1.004221420502508693e+02 -9.157551607084801049e+01
5.417883413986223928e+01 -5.206271058033637900e+01 -1.049397839358717164e+02 1.817623778518280497e+00 8.013539978576913825e+01 -7.821776316026868869e+01 2.212249140884076937e+01 1.741699631648238551e+02 -7.713642310558401505e+01 -1.201456555832753139e+02 -1.009017239714569598e+02 -9.154477600608808530e+01
5.318943479304859778e+01 -5.232094270322333784e+01 -1.048812577157980144e+02 2.338373615173690911e+00 7.963292079395932888e+01 -7.773494582777706796e+01 2.158697365168449167e+01 1.764135413240020114e+02 -7.946755703294388695e+01 -1.226061016198479336e+02 -1.010743000111572627e+02 -8.976011787547089682e+01
5.121301676900410627e+01 -5.380190027352217896e+01 -1.042747085296946210e+02 3.064001306467091013e+00 7.894885280534961680e+01 -7.793422656488459666e+01 1.968072747036651293e+01 1.782899743798517989e+02 -8.112299463958989065e+01 -1.250297191870251794e+02 -1.010235178741783670e+02 -8.825226413528950786e+01
5.121939581371419337e+01 -5.381666457351415289e+01 -1.035691289573484255e+02 2.824936750788596296e+00 7.921309976942646358e+01 -7.807917643396899621e+01 1.838202242200060610e+01 1.796944757458861943e+02 -8.322224380038018410e+01 -1.272052456699350955e+02 -1.011180344572935184e+02 -8.800167677251452858e+01
5.229309817813595629e+01 -5.227430543032473054e+01 -1.025885449776050109e+02 2.535286553128228704e+00 7.917569237467481003e+01 -7.770087183047866120e+01 1.945080032015296823e+01 1.794415030812567124e+02 -8.489152829314723192e+01 -1.284389423947785076e+02 -1.021644131932133632e+02 -8.820443610978448135e+01
5.343231101370460578e+01 -4.943633783139683402e+01 -1.010157612826232025e+02 1.237927840131620938e+00 7.831494797838017519e+01 -7.571806841223785511e+01 2.337488537896933849e+01 1.778300571855401699e+02 -8.743004936478976674e+01 -1.297788183339187640e+02 -1.044354869461813564e+02 -8.747178800892029926e+01
5.193103019141490506e+01 -4.833453035592311409e+01 -9.896503986371139661e+01 4.698928839251077516e-01 7.598235157594663747e+01 -7.323326630038896212e+01 2.585379503804897183e+01 1.736346716148339908e+02 -8.904568315349420971e+01 -1.311666872459746003e+02 -1.070842558921783052e+02 -8.642092927835186345e+01
4.983149532070671484e+01 -4.760240415629209565e+01 -9.679396331960582245e+01 -4.464570938767485342e-01 7.396115566054855606e+01 -7.064163291454612192e+01 2.516002231587651394e+01 1.670332122637886130e+02 -9.120688410628505949e+01 -1.329802505382452864e+02 -1.087169324660965515e+02 -8.562346607528596110e+01
4.810599177916836311e+01 -4.634790434275468840e+01 -9.432748327568769753e+01 -6.684361655539524660e-01 7.243445070000630892e+01 -6.882514119415091614e+01 2.164060267518921421e+01 1.577814234588762758e+02 -9.340813926642020704e+01 -1.343087652514424519e+02 -1.090582876394126259e+02 -8.521145547622624861e+01
4.798277919703315320e+01 -4.343747010041178669e+01 -9.145680060776419396e+01 -1.302977880377035769e+00 7.142607307082073476e+01 -6.717919181073253299e+01 1.832882733544596476e+01 1.475260353801824351e+02 -9.672691331138770465e+01 -1.357742911056002697e+02 -1.089493261142439593e+02 -8.483554164487482296e+01
4.685481392942251233e+01 -4.161787699888115810e+01 -8.843844550323264286e+01 -1.077263823241479068e+00 6.931744619673324337e+01 -6.586541712746057442e+01 1.485841309309429548e+01 1.360294254126074804e+02 -9.892335251498258231e+01 -1.371902322731540096e+02 -1.090086083367702230e+02 -8.492861057904023880e+01
4.487887200546379063e+01 -4.058811784526083954e+01 -8.561809717285728993e+01 -8.380157945989032964e-01 6.654291539804791000e+01 -6.405300380510210800e+01 1.085550238847942239e+01 1.238236362344035939e+02 -1.009647861784958849e+02 -1.385978187897038651e+02 -1.088826913150486746e+02 -8.494286444937849012e+01
4.198907039290326537e+01 -3.994709048944868357e+01 -8.266788649270955602e+01 -6.333820161564382434e-02 6.331825365500871783e+01 -6.213550704793905055e+01 5.541791017709236655e+00 1.106395818884528808e+02 -1.025991142621707439e+02 -1.384965635523458332e+02 -1.083334322299662063e+02 -8.402281497515545539e+01
4.039861724216656569e+01 -3.805630734098838275e+01 -7.953198673515466055e+01 6.050321987471725914e-03 6.106623790076753977e+01 -6.007713892636131447e+01 1.094409760647877983e+00 9.848295979048280913e+01 -1.052644179472306263e+02 -1.374176850219134280e+02 -1.077619681623947230e+02 -8.199457555636341510e+01
3.924267470454688578e+01 -3.708129930866947888e+01 -7.688833710012521294e+01 6.530175891936540467e-01 5.946347428346183506e+01 -5.870732255185227899e+01 -1.989377866895382541e+00 8.780902316453476431e+01 -1.066733775009909664e+02 -1.362075450425285794e+02 -1.073634680880225858e+02 -8.041209660998539732e+01
3.880504742480125202e+01 -3.724473207039861222e+01 -7.560039968979985758e+01 1.359443625327561467e+00 5.869778218665742031e+01 -5.746016401568505216e+01 -3.808969760033972474e+00 7.971955014525698857e+01 -1.069033730209703634e+02 -1.358899776480595847e+02 -1.065397710125525776e+02 -7.985223454453071668e+01
3.761590474483532631e+01 -3.861971394173856709e+01 -7.519766591898478225e+01 2.673073351181093127e+00 5.761395481648590078e+01 -5.650915682118271377e+01 -7.131873887836820636e+00 7.382687283857653426e+01 -1.054836513525555688e+02 -1.345754266530316841e+02 -1.049786508889632870e+02 -7.952543122634597239e+01
3.655287475957542398e+01 -3.909683511164861613e+01 -7.481124112140456361e+01 3.056649084286607199e+00 5.657469268515925620e+01 -5.578865925020549810e+01 -1.242473258777655865e+01 7.139410951606346600e+01 -1.048602961593590237e+02 -1.315460776104265506e+02 -1.034327977159066165e+02 -7.854089049381524035e+01
3.516225580999005729e+01 -3.965183701390027693e+01 -7.452849018794849201e+01 3.247119710525901759e+00 5.570257811467564579e+01 -5.627664392887432854e+01 -1.861674665968915576e+01 7.131136598462366294e+01 -1.045865577311555512e+02 -1.279254003404224136e+02 -1.028275980919204216e+02 -7.786928782713640373e+01
3.522118741162604749e+01 -4.034095083489094691e+01 -7.568658856701159721e+01 2.815680317670647081e+00 5.657483680329179521e+01 -5.759529177966503966e+01 -2.160235055106209501e+01 7.237049759656380843e+01 -1.053787310962513004e+02 -1.271506077626639382e+02 -1.032898143542298328e+02 -7.829800418563843323e+01
3.640309520248402464e+01 -4.204753944802405385e+01 -7.863368183881078721e+01 2.965988593834004483e+00 5.890470986847056167e+01 -5.963575439726849226e+01 -2.003578659749360824e+01 7.185235091747941283e+01 -1.060584098653424405e+02 -1.295372508572317543e+02 -1.046350095339791437e+02 -7.941513690833245676e+01
3.900630960230354560e+01 -4.348910332662864420e+01 -8.231813481439503732e+01 3.043138125464421861e+00 6.220328394615324186e+01 -6.182004894375950244e+01 -1.503059185665374109e+01 7.046677434833669906e+01 -1.076635490028322693e+02 -1.333715677480025192e+02 -1.069418313412490136e+02 -8.028499159844901101e+01
4.092542301534022897e+01 -4.520791902935334150e+01 -8.536039457502403138e+01 3.795207391840153655e+00 6.469317245827048168e+01 -6.444785873676904941e+01 -1.072501295262344989e+01 6.900867088823584083e+01 -1.090436484828272654e+02 -1.359866320078688489e+02 -1.096898231761040705e+02 -8.124911058691657217e+01
4.250834367761198962e+01 -4.625241646143643948e+01 -8.776929938706017253e+01 3.939304731284290817e+00 6.659297861373784144e+01 -6.663480992472433684e+01 -8.477379890547318553e+00 6.925055279319954593e+01 -1.103688653675975218e+02 -1.373074016331315761e+02 -1.113137099307694768e+02 -8.231491806094136621e+01
4.363004715139805967e+01 -4.667804360977694955e+01 -8.983412943047918020e+01 3.382494183744452876e+00 6.794327356726940081e+01 -6.789675995244559203e+01 -8.120824568417386757e+00 6.977311904032482914e+01 -1.099625137844648037e+02 -1.370298425408270475e+02 -1.105880420729742326e+02 -8.229764638634537732e+01
4.574475720731872741e+01 -4.550979355832598117e+01 -9.137415874132304339e+01 1.212392965695249902e+00 6.946143406398959996e+01 -6.792669211430329312e+01 -7.957512376680829114e+00 6.992555123162084385e+01 -1.084098618583288385e+02 -1.353030921479715687e+02 -1.081693308095784261e+02 -8.014025644284286898e+01
4.742705157450757270e+01 -4.440043041100891941e+01 -9.160225801724297412e+01 -5.675112952846578240e-01 7.011052746177935546e+01 -6.789439688514025306e+01 -8.701715118030097784e+00 6.780912629288243920e+01 -1.055530731760243697e+02 -1.321077276320837086e+02 -1.055713378801145552e+02 -7.727332060641907674e+01
4.795794954752695105e+01 -4.399236529110120841e+01 -9.064735935346065787e+01 -8.679034026718310812e-01 6.981979878991023725e+01 -6.805396430683998688e+01 -1.073106456808252496e+01 6.355625152286329893e+01 -1.036459870797127110e+02 -1.293574602330344874e+02 -1.034239605683360708e+02 -7.575905720061699355e+01
4.569660682386554384e+01 -4.508994193093987235e+01 -8.910135140957294198e+01 1.543152921774199493e+00 6.829912587848393457e+01 -6.827456733576717340e+01 -1.462208001287887882e+01 5.603750610800248211e+01 -1.031069288195203058e+02 -1.276758219559645227e+02 -1.014001931029491885e+02 -7.554642519197733463e+01
4.200942534558192420e+01 -4.626212443556212861e+01 -8.764619287442646112e+01 4.819880336319979364e+00 6.655286223341352070e+01 -6.781978147076043228e+01 -1.918753183097880921e+01 4.638311094082947506e+01 -1.044661123430403649e+02 -1.267780036843668512e+02 -9.957248798867240680e+01 -7.460038317996124135e+01
3.768248692675252443e+01 -4.773783448287350950e+01 -8.617747145970881206e+01 8.123730591985703242e+00 6.419643675604847033e+01 -6.724486024852731703e+01 -2.425692577193407828e+01 3.484800300144967622e+01 -1.055826844789270353e+02 -1.252863104902164650e+02 -9.814055833352549030e+01 -7.218253112866499066e+01
3.431503967173849645e+01 -4.943205392036075096e+01 -8.463201582700894221e+01 1.047680660161470101e+01 6.126970334889943359e+01 -6.698568813376708420e+01 -2.904514074129787105e+01 2.346608270605996438e+01 -1.060546875046755559e+02 -1.236465301789787219e+02 -9.657060150537630250e+01 -6.939268422174970397e+01
3.057516838250406011e+01 -5.237114117401505808e+01 -8.271705078152309909e+01 1.331258762255117922e+01 5.724815211730773257e+01 -6.746089371877414465e+01 -3.346167440779846913e+01 1.215729429718312637e+01 -1.053792510823402608e+02 -1.218054202793191649e+02 -9.388003696852457836e+01 -6.702693370416523067e+01
2.601239103552120469e+01 -5.562384772490165830e+01 -8.055545978823627706e+01 1.671349971759894615e+01 5.325298301432339798e+01 -6.812271619193016647e+01 -3.647167448383635247e+01 2.097005509328305983e+00 -1.049931314211839180e+02 -1.194381901209439292e+02 -9.023185189778379822e+01 -6.441095869668235707e+01
2.037039650450653028e+01 -5.868239265991488196e+01 -7.833723149479158110e+01 2.073353367307638706e+01 4.979498638114522180e+01 -6.878096285153910117e+01 -3.852218704739540556e+01 -7.340340801460760289e+00 -1.047086555021842003e+02 -1.155511685964491591e+02 -8.659825213465492766e+01 -6.126137604890688237e+01
1.661216565598029860e+01 -6.008427696584245581e+01 -7.680788194505456090e+01 2.323982738506009582e+01 4.776643021119745924e+01 -6.898754953103762944e+01 -4.036648087551050423e+01 -1.525521820934900141e+01 -1.051573861508979491e+02 -1.113127525871929464e+02 -8.347391491935705687e+01 -5.862964531991959660e+01
1.601466485536755258e+01 -6.007494800345083519e+01 -7.610036396218131927e+01 2.358792078756019350e+01 4.677280260059855976e+01 -6.873700239472184137e+01 -4.381715470683621305e+01 -2.266742325914303180e+01 -1.058429568060665105e+02 -1.078654247515204645e+02 -8.044998609692281377e+01 -5.738490860142768213e+01
1.851195026868302662e+01 -5.871604308296181784e+01 -7.601363130146428659e+01 2.157280742879351720e+01 4.716634593462131875e+01 -6.781435898616713587e+01 -4.877878192562424431e+01 -2.877553429802758700e+01 -1.072755261397680329e+02 -1.057514202227619791e+02 -7.761228182756023841e+01 -5.694217505808513380e+01
2.115011029655647690e+01 -5.707228327258393108e+01 -7.594986264975011636e+01 1.913455248295465339e+01 4.839193808588040469e+01 -6.649019342753535966e+01 -5.404090853313780940e+01 -3.408238745192881680e+01 -1.084483346494919687e+02 -1.037808723239237167e+02 -7.543372026514347795e+01 -5.643049566763653502e+01
2.328915052429671917e+01 -5.460292963868298699e+01 -7.603306774020670389e+01 1.665529234946772874e+01 5.026532595837445427e+01 -6.475937040287507784e+01 -5.722192258629392825e+01 -3.719741150168282928e+01 -1.090475595988614117e+02 -1.017705765532438136e+02 -7.379861050711598125e+01 -5.596054408443193751e+01
2.516704275496963561e+01 -5.116520291148351873e+01 -7.612206530624384015e+01 1.419615663402922046e+01 5.175173026242528351e+01 -6.285361466458688540e+01 -5.815265958078350650e+01 -3.890159839559999000e+01 -1.080229969074686949e+02 -9.944876899669512227e+01 -7.164707697742682058e+01 -5.568839580847806303e+01
2.842232171889210335e+01 -4.649168262684234776e+01 -7.597369774963021882e+01 1.055917709663211568e+01 5.317543319344790831e+01 -6.078922753229504394e+01 -5.796053948040213299e+01 -3.887659026225817627e+01 -1.057706840726783923e+02 -9.672399041924919061e+01 -6.870503540617303884e+01 -5.487323451011462083e+01
3.232087536233621705e+01 -4.211352070362867295e+01 -7.507022984166374613e+01 6.486115334242226638e+00 5.457425293668070054e+01 -5.880808777697311740e+01 -5.835155106713543915e+01 -3.891846951405284472e+01 -1.025248852173153296e+02 -9.306092273819453453e+01 -6.580072061370090353e+01 -5.290015392497222280e+01
3.630588606669762441e+01 -3.877762344583547360e+01 -7.394548539404806320e+01 2.733863443335772914e+00 5.612683341566917505e+01 -5.685770485080958281e+01 -5.901939111881596745e+01 -3.892903171653384220e+01 -9.989307851678992733e+01 -8.985240925579712723e+01 -6.391168054256162634e+01 -5.090549061559018895e+01
3.890868246912636863e+01 -3.697370636298146707e+01 -7.315676785574541441e+01 6.747302021821078855e-01 5.658752198112317444e+01 -5.516258104661561390e+01 -5.976163720286426440e+01 -4.021791489238339778e+01 -9.861296298291685503e+01 -8.848402006180202761e+01 -6.302200452467121750e+01 -5.060401681659197948e+01
4.006666272542079810e+01 -3.593386420147625415e+01 -7.301976371595898740e+01 -5.075222453925556237e-02 5.599760922633084448e+01 -5.395377594661413667e+01 -6.106587158372143875e+01 -4.199494478391522279e+01 -9.907606685617066944e+01 -8.906636886273894049e+01 -6.302723920793469148e+01 -5.208527401697835302e+01
3.946462048217889418e+01 -3.555980612208056613e+01 -7.295354637813569809e+01 2.311427617260027323e-01 5.521119682254549588e+01 -5.338713524614562544e+01 -6.435641882180355822e+01 -4.520072782767780950e+01 -1.000477327240999159e+02 -8.945571069202901526e+01 -6.384123302180147164e+01 -5.337575067167687592e+01
3.905880735293988693e+01 -3.495088653077299057e+01 -7.302473732990202393e+01 -5.831126527603448795e-02 5.606836814241602696e+01 -5.298639216910391525e+01 -6.906098618609188122e+01 -4.896328559233587185e+01 -1.010458655452046628e+02 -8.901777052834981419e+01 -6.502672013148686858e+01 -5.298725086190245293e+01
4.073938945032018211e+01 -3.336450582215098848e+01 -7.353447714179939965e+01 -1.865203244307392483e+00 5.850798391292376976e+01 -5.244317015196609333e+01 -7.360232213469005558e+01 -5.398458488299347380e+01 -1.018689880347941283e+02 -8.896549159490959369e+01 -6.547593513120408204e+01 -5.133741173463137386e+01
4.599080458454773179e+01 -3.000712157170099914e+01 -7.500493961074377580e+01 -5.994802047090082020e+00 6.200324385556008622e+01 -5.199855336003542305e+01 -7.695016503085426507e+01 -5.883858749219337625e+01 -1.030146157227373038e+02 -9.099970496803825881e+01 -6.501620346214444623e+01 -5.001811945054743802e+01
5.268730145708790502e+01 -2.603414126805232343e+01 -7.696965529348290147e+01 -1.096514401933893623e+01 6.556381871991430899e+01 -5.201786145553707286e+01 -8.035220367947489706e+01 -6.417038328811709391e+01 -1.040610726566151811e+02 -9.403067028752521139e+01 -6.456077337194581389e+01 -4.949802501394587040e+01
5.792836590445167388e+01 -2.304039728200034887e+01 -7.896052623305240559e+01 -1.494087415106504046e+01 6.893508885645040607e+01 -5.200944297201425570e+01 -8.480126818912199838e+01 -6.965482358521673234e+01 -1.049882685935296678e+02 -9.599734995883966349e+01 -6.498342334900266337e+01 -4.904126993690649527e+01
5.916106638064433554e+01 -2.243838360857219882e+01 -8.030584056294745210e+01 -1.617696671752840132e+01 7.069590599343469250e+01 -5.141610214299502246e+01 -9.002330950760483574e+01 -7.726386221891576156e+01 -1.060400789183695878e+02 -9.566605366410441036e+01 -6.570617433099101845e+01 -4.775689478726314263e+01
5.722955509398676099e+01 -2.384256173983792948e+01 -8.100373265967959924e+01 -1.515297221996560850e+01 7.014322132786725206e+01 -5.098461656054691815e+01 -9.471953818779203971e+01 -8.627086263451444381e+01 -1.078789821529602904e+02 -9.412961065282514994e+01 -6.600999305608962686e+01 -4.610578772238253009e+01
5.420907142970079207e+01 -2.623635057070134025e+01 -8.103898222469517520e+01 -1.289128051525098506e+01 6.797044819333402188e+01 -5.218206908021038259e+01 -9.862861914757530712e+01 -9.624903047291964242e+01 -1.100895519795734856e+02 -9.261453642984659496e+01 -6.593078974244218671e+01 -4.503068798993599842e+01
5.301729820173828500e+01 -2.790924332077337411e+01 -8.101884908838434285e+01 -1.112606954276481730e+01 6.699978206804496494e+01 -5.478021839237174362e+01 -1.017524248445021300e+02 -1.042734944202932610e+02 -1.118937518713461827e+02 -9.203105198916264840e+01 -6.600391433127120422e+01 -4.499082911307768740e+01
5.453918557517800991e+01 -2.774352811968691412e+01 -8.118670823724797003e+01 -1.097756884745245642e+01 6.847360854595216040e+01 -5.635364160677993794e+01 -1.037744919333494664e+02 -1.100564391791753422e+02 -1.127581572270470218e+02 -9.222323920738645597e+01 -6.587041462626223165e+01 -4.519074207980475677e+01
5.850955336958354280e+01 -2.535655381806651931e+01 -8.190988411519286672e+01 -1.356733505951454966e+01 7.165342012529777094e+01 -5.526630253955183747e+01 -1.040542093989236605e+02 -1.126946977556320775e+02 -1.129987307663689222e+02 -9.293817937784557159e+01 -6.513056255548565332e+01 -4.505629284028032799e+01
6.300107594600687122e+01 -2.198439444069472515e+01 -8.308121430536095886e+01 -1.815821383078945317e+01 7.456612136602009855e+01 -5.290060230766777494e+01 -1.032489269026767431e+02 -1.138818571894386338e+02 -1.129740350805622313e+02 -9.349880902807099403e+01 -6.413875458123459339e+01 -4.471029331759673653e+01
6.667358837678160910e+01 -1.923908890797851967e+01 -8.478099434064337458e+01 -2.259334746244397607e+01 7.678681926340804864e+01 -5.195986292168566933e+01 -1.029124318574934023e+02 -1.138379919872897545e+02 -1.129758671366742107e+02 -9.394985339251688572e+01 -6.395096443637414296e+01 -4.493116728187521858e+01
6.804357230665958411e+01 -1.839616577285177712e+01 -8.614823705826175626e+01 -2.395830539416695260e+01 7.792378772068474291e+01 -5.288772265138131701e+01 -1.043204373806361787e+02 -1.149100166183432634e+02 -1.134054511807082832e+02 -9.458503126461516786e+01 -6.469950135992250750e+01 -4.570881174657866097e+01
6.658662921109441868e+01 -1.960119926718179428e+01 -8.620684030102836459e+01 -2.167514396304112267e+01 7.736327146260003929e+01 -5.393767179461694639e+01 -1.073721647459865238e+02 -1.172637857848998806e+02 -1.146821916885637336e+02 -9.579158126908131976e+01 -6.583096334610593203e+01 -4.681837710941449870e+01
6.223486143535309623e+01 -2.253045632074932669e+01 -8.443098182234508897e+01 -1.737632160308184126e+01 7.442765513674750366e+01 -5.393602101623352496e+01 -1.112806907038554556e+02 -1.217015686467266278e+02 -1.168619572508411153e+02 -9.700856487953616636e+01 -6.681744806749252064e+01 -4.807798475932980153e+01
5.696369871203574320e+01 -2.626753584210401371e+01 -8.231758611700058736e+01 -1.360105918833740724e+01 7.066805966054356247e+01 -5.390316583850663790e+01 -1.152526498226656173e+02 -1.260554927477412690e+02 -1.194637087237154276e+02 -9.788377716974569864e+01 -6.781757518318170241e+01 -4.970480834565019990e+01
5.305967847453688790e+01 -2.964590916642061913e+01 -8.154010294712264795e+01 -1.107301109668290984e+01 6.814276447502496126e+01 -5.491968367399075390e+01 -1.189301334246691937e+02 -1.301765462178408086e+02 -1.221457959363309556e+02 -9.857368720839886578e+01 -6.869415708845970414e+01 -5.100093957709733417e+01
5.197634742501414706e+01 -3.171104969968096299e+01 -8.264891057664235063e+01 -9.362251880256380332e+00 6.787297371087241515e+01 -5.665152977740509499e+01 -1.222861940800696487e+02 -1.331866810893037609e+02 -1.245198830455130974e+02 -9.971275332102860034e+01 -6.905359524054571807e+01 -5.117344209041363001e+01
5.244633190635396147e+01 -3.279489839698122466e+01 -8.430229252284594565e+01 -7.829633986651037603e+00 6.876931325568138220e+01 -5.807005731753455535e+01 -1.254406789625864462e+02 -1.366591318013774412e+02 -1.263909552007790609e+02 -1.010150198266548642e+02 -6.848672982588364277e+01 -5.012206966528110996e+01
5.236987639769454717e+01 -3.435031641561790394e+01 -8.571878499242041016e+01 -6.421591304412157086e+00 6.983437322197680430e+01 -5.952132275084311175e+01 -1.283498225372378556e+02 -1.399722771879890502e+02 -1.276604117538213785e+02 -1.018981642764889841e+02 -6.732421509059936682e+01 -4.914742547908988257e+01
4.996836559242257181e+01 -3.781066410209019324e+01 -8.694963611461483310e+01 -4.305108678112419263e+00 7.022446057502550332e+01 -6.201973152978401771e+01 -1.307514503240931276e+02 -1.439424655681326328e+02 -1.292692645701935703e+02 -1.022128075651782240e+02 -6.618479748978711541e+01 -4.888168398944860371e+01
4.546386775566626426e+01 -4.329299874097672785e+01 -8.855928925310458055e+01 -4.243757798620219068e-01 6.948506107251678543e+01 -6.586338787551818541e+01 -1.325860779884574185e+02 -1.477163947538221862e+02 -1.319946231804385377e+02 -1.027492684710807112e+02 -6.588789404933494609e+01 -4.901803901736337821e+01
4.028140703201798090e+01 -4.948882639961668417e+01 -9.013862659557608481e+01 5.075516289345520349e+00 6.737961639880158771e+01 -6.989542345630935927e+01 -1.339550378863611115e+02 -1.523340622524163734e+02 -1.358170096684597183e+02 -1.039225926927942254e+02 -6.673734008850105681e+01 -4.897297837536736864e+01
3.663980400568689078e+01 -5.474862651540198755e+01 -9.158701545340161942e+01 9.962310782812826560e+00 6.534434612105856388e+01 -7.319832725597929368e+01 -1.348658250197390203e+02 -1.565981384769515898e+02 -1.391934836263234843e+02 -1.055267104356423715e+02 -6.845510695607779894e+01 -4.958058284208788535e+01
3.531646163099935620e+01 -5.836498341531743961e+01 -9.313322081000913499e+01 1.251156779404188057e+01 6.499532537650831898e+01 -7.570038476589678567e+01 -1.350818494716081091e+02 -1.609333406822608481e+02 -1.413529462664066614e+02 -1.070563335128820626e+02 -7.017719997310121016e+01 -5.148902198068744696e+01
3.519113600929632923e+01 -6.109323772670989428e+01 -9.527025803170563734e+01 1.355439447721937363e+01 6.645739610817783216e+01 -7.815381090562456734e+01 -1.349764484610778084e+02 -1.645700071707797463e+02 -1.425471172994271001e+02 -1.085227345274045234e+02 -7.158231675182121023e+01 -5.422070217965386263e+01
3.410615993506267785e+01 -6.408596917839852836e+01 -9.745370794806868275e+01 1.545508318800323622e+01 6.782919782421106447e+01 -8.087032198671975891e+01 -1.353425140081235725e+02 -1.689961296717266350e+02 -1.441067506338761461e+02 -1.100020083406352853e+02 -7.292168305375277271e+01 -5.626834625029965764e+01
3.182501883790361674e+01 -6.770373367528334541e+01 -9.937807483104128892e+01 1.876765970590425070e+01 6.809053636864726400e+01 -8.391720500026031004e+01 -1.365419611422832702e+02 -1.733355810522922411e+02 -1.461546938666823792e+02 -1.114946256931464319e+02 -7.447919778088771636e+01 -5.757247731816012504e+01
2.994143154955840558e+01 -7.120888823578300730e+01 -1.012744857430019181e+02 2.188615382560415057e+01 6.794414872574914455e+01 -8.697060700317732085e+01 -1.376577995129553642e+02 -1.776755108941363233e+02 -1.484654425768689521e+02 -1.129169602007918058e+02 -7.581067930337938776e+01 -5.901079711917942205e+01
2.977346777568780212e+01 -7.406984768268738151e+01 -1.038878512777150718e+02 2.359012390111057300e+01 6.858688133897246075e+01 -8.994983412644069176e+01 -1.380108122907631696e+02 -1.807398116580963290e+02 -1.503236049632550646e+02 -1.144090721467997440e+02 -7.670076603212454813e+01 -6.118044171185417213e+01
3.036697008140981779e+01 -7.646442677946870958e+01 -1.068060297134586420e+02 2.468875763937505141e+01 6.971768067676663350e+01 -9.262916352119023600e+01 -1.381141617204853844e+02 -1.840658701757635072e+02 -1.520041311826672654e+02 -1.159678760119786602e+02 -7.762870988502204739e+01 -6.316240631534515870e+01
3.029801322587857371e+01 -7.895616230523381773e+01 -1.092705229373473799e+02 2.626580246846009103e+01 7.068919404948150031e+01 -9.509178888332446888e+01 -1.392324745721232091e+02 -1.874132682580313372e+02 -1.533857921997741585e+02 -1.174455791514313034e+02 -7.922644786915138582e+01 -6.453901206477506491e+01
2.949901312495599015e+01 -8.151831826031063599e+01 -1.108884667547824989e+02 2.793721175642513543e+01 7.148687919726350515e+01 -9.725863538918736140e+01 -1.412826528836210969e+02 -1.910544188879571550e+02 -1.548799409600817398e+02 -1.187974042799371119e+02 -8.109186992451421361e+01 -6.582302655611057673e+01
2.902058314688627405e+01 -8.399737508206858649e+01 -1.123414088136487408e+02 2.882121571637211233e+01 7.254374405221041400e+01 -9.924434746881689762e+01 -1.433161590101649949e+02 -1.931930503560729733e+02 -1.562850860248465210e+02 -1.202791239311251132e+02 -8.253058491450518375e+01 -6.793548871767400499e+01
2.906049105237396901e+01 -8.626057974875084255e+01 -1.139013881060542133e+02 2.926280746367732277e+01 7.348597507689397901e+01 -1.009141276576004600e+02 -1.448348557542369690e+02 -1.949523282204122268e+02 -1.579277507541718251e+02 -1.219693169602074647e+02 -8.362156429004336644e+01 -7.036613200162712189e+01
2.908030863303293145e+01 -8.828572335538609650e+01 -1.154351831023113704e+02 3.029328643702761426e+01 7.392255399348920264e+01 -1.024016577793142204e+02 -1.467783487648650862e+02 -1.967047854781159231e+02 -1.593304361477048019e+02 -1.234883837376388840e+02 -8.512952770310272399e+01 -7.235043102626913480e+01
2.890405008572391310e+01 -8.960046031853521242e+01 -1.165775021609879900e+02 3.184473304892518897e+01 7.413154996051039802e+01 -1.036551260963520917e+02 -1.497067277971404451e+02 -1.996111945485662602e+02 -1.607576123756814184e+02 -1.244204957543818182e+02 -8.704138804599320167e+01 -7.368743763123158885e+01
2.891930669062365311e+01 -9.005113727677462521e+01 -1.175787351019677800e+02 3.288433456330419347e+01 7.468391421253937779e+01 -1.046997657871975207e+02 -1.532997014271982152e+02 -2.019419392675947051e+02 -1.621211742136761700e+02 -1.248405959780745178e+02 -8.856783448728046437e+01 -7.517873422333636313e+01
2.906986948622222044e+01 -8.985103572064659261e+01 -1.183522047680712461e+02 3.289283882929646552e+01 7.524418853886643888e+01 -1.051182934630432726e+02 -1.567259954907343911e+02 -2.039726504235329685e+02 -1.640179598508092340e+02 -1.251999796147298127e+02 -8.928623642525208481e+01 -7.688911872259289737e+01
2.903612328775691864e+01 -8.940696968541463718e+01 -1.184504406390122284e+02 3.235510788977812524e+01 7.523089007354585078e+01 -1.046590349236607835e+02 -1.601501627474212341e+02 -2.056379815214617679e+02 -1.659490823065059146e+02 -1.257072675942472273e+02 -8.971952579501316904e+01 -7.843947968302076390e+01
2.905785386752053157e+01 -8.846024438803851808e+01 -1.172647970298473581e+02 3.161626642382480412e+01 7.474448320570928672e+01 -1.031675204689525600e+02 -1.638547127049092467e+02 -2.084887944958750836e+02 -1.679572139707413214e+02 -1.262622544620823390e+02 -9.030097896696803161e+01 -7.944035581263413803e+01
2.960274451135056850e+01 -8.694053008125615634e+01 -1.151908833523085889e+02 3.062348884398752347e+01 7.429336833042145827e+01 -1.011408319741963879e+02 -1.678983516222886294e+02 -2.113549273541880780e+02 -1.697701614143750248e+02 -1.267262793863161505e+02 -9.083214602336073540e+01 -8.041077903157713536e+01
3.021987111313884355e+01 -8.527486591774525948e+01 -1.130978177013530086e+02 2.951289528184490862e+01 7.361406838877317682e+01 -9.910539426810687758e+01 -1.717011905287228899e+02 -2.143379695628817956e+02 -1.721990077179332843e+02 -1.272878775514780898e+02 -9.110926758216817234e+01 -8.153354601085101194e+01
2.981444087958936251e+01 -8.426708797048678434e+01 -1.116528461410357949e+02 2.894340373508830311e+01 7.213095926827558912e+01 -9.760737626268301881e+01 -1.751903282784061275e+02 -2.169807429533059633e+02 -1.750765856009259380e+02 -1.282132125642798997e+02 -9.151991255203017772e+01 -8.261715296365025551e+01
2.819066175783779826e+01 -8.389812449039840203e+01 -1.104902468338719643e+02 2.922092730922973303e+01 7.014064735505228043e+01 -9.664829824607691933e+01 -1.783319160926040752e+02 -2.207508165675416762e+02 -1.785207735656271950e+02 -1.297289210047183303e+02 -9.250366765503758870e+01 -8.319502829384038023e+01
2.615927170869459673e+01 -8.389115402579153624e+01 -1.090599266343665619e+02 3.019698587617058294e+01 6.860106870030902826e+01 -9.616947622271736407e+01 -1.813436912967070782e+02 -2.246553976923967468e+02 -1.818749450853030396e+02 -1.317101703956248571e+02 -9.398763789845096994e+01 -8.363575522914234739e+01
2.418505757202986572e+01 -8.417637523178881054e+01 -1.072513025527567692e+02 3.165054713698610556e+01 6.761683407688349234e+01 -9.592547369688618630e+01 -1.840862901477633784e+02 -2.284637337374366552e+02 -1.854875196176103884e+02 -1.338760123223412393e+02 -9.573717789034343184e+01 -8.433715584492024675e+01
2.178994500470897933e+01 -8.513629611946933551e+01 -1.056782322054224466e+02 3.362658555934366689e+01 6.626595321494767177e+01 -9.592101539119597930e+01 -1.866498985296564115e+02 -2.311922562726691410e+02 -1.889131762674529398e+02 -1.358550904982729151e+02 -9.770533804254390020e+01 -8.540909299875863780e+01
1.886206335766237885e+01 -8.657524758202744408e+01 -1.046993045516442180e+02 3.583886389586382393e+01 6.412240095058045597e+01 -9.609051700136242857e+01 -1.887126120822980226e+02 -2.341897903322914658e+02 -1.921889948139499324e+02 -1.376983902498227224e+02 -9.976509011578313846e+01 -8.628460710088565122e+01
1.618863415963991059e+01 -8.810209614073436057e+01 -1.041983687492049881e+02 3.787789134024377802e+01 6.195434098298921555e+01 -9.655954180712035395e+01 -1.902513273356952936e+02 -2.370609229743596416e+02 -1.946209362755466543e+02 -1.396182590301159223e+02 -1.013743332388443150e+02 -8.680453144678166666e+01
1.453352792581546282e+01 -8.948229409035826620e+01 -1.039533211679682125e+02 3.956843272735714834e+01 6.065853025372882001e+01 -9.728504266107378839e+01 -1.914020455859646574e+02 -2.399810691079321998e+02 -1.967250070415111622e+02 -1.417772919993630012e+02 -1.022187881207155726e+02 -8.711010728336704290e+01
1.357696721915403870e+01 -9.095749516064745421e+01 -1.042915605422344640e+02 4.110377361311778088e+01 6.015414142650239171e+01 -9.826599653727225814e+01 -1.928554848664679753e+02 -2.418419729428727578e+02 -1.985595198033323356e+02 -1.438208313557175586e+02 -1.026222364119559671e+02 -8.760241084945549517e+01
1.269874735260967213e+01 -9.252169082607112216e+01 -1.054636520720955559e+02 4.237182297633641070e+01 5.994512179405759156e+01 -9.938221566686458175e+01 -1.945601444783613090e+02 -2.435732548130577584e+02 -2.007423232424970081e+02 -1.455108033392421873e+02 -1.032558477852556678e+02 -8.819173594199835975e+01
1.168718783546399820e+01 -9.434957539639724189e+01 -1.070438576869201484e+02 4.331782343589032536e+01 5.987173517302912273e+01 -1.007751728791639749e+02 -1.961583743547874406e+02 -2.449041569588141556e+02 -2.027014060295143167e+02 -1.469139734395737378e+02 -1.042369569023339153e+02 -8.874187648677764173e+01
1.071249877279009866e+01 -9.685216225249237709e+01 -1.083562296445114868e+02 4.437876616415845632e+01 6.010385279967078276e+01 -1.026065196888641680e+02 -1.973307175411185312e+02 -2.464995956370236740e+02 -2.045257864869793138e+02 -1.485254614425615216e+02 -1.053169591127919631e+02 -8.909037718259966709e+01
9.703170395689038941e+00 -1.003075029586367890e+02 -1.096141698040249111e+02 4.624537273722238240e+01 6.056108471204002086e+01 -1.050053961650775278e+02 -1.987231565143607099e+02 -2.477542852319750750e+02 -2.058723611978489032e+02 -1.504552006502230199e+02 -1.062653867789272510e+02 -8.949965885804662946e+01
8.768964078308499666e+00 -1.039551984373420765e+02 -1.116771422241159399e+02 4.866561803015781607e+01 6.119693888312274765e+01 -1.077843903094340874e+02 -2.005044691569313215e+02 -2.495685858777939927e+02 -2.074988693877871242e+02 -1.525876163390342128e+02 -1.073153141713302432e+02 -9.026305912429046430e+01
8.166411432456071040e+00 -1.069973601144986901e+02 -1.146700253948653767e+02 5.078957273018964003e+01 6.209594127613009817e+01 -1.107448494027119779e+02 -2.022200611993064285e+02 -2.514068151265508391e+02 -2.093249586725048914e+02 -1.545909996646227000e+02 -1.086701583899906751e+02 -9.166554909425705944e+01
7.965973499459794382e+00 -1.096896678625935806e+02 -1.177027783160592378e+02 5.237544085392975290e+01 6.331687043463061570e+01 -1.137414074181504304e+02 -2.031694109925256555e+02 -2.535515939522508972e+02 -2.115823759299351252e+02 -1.564418953476551621e+02 -1.104894051299073396e+02 -9.344610322380441403e+01
7.610137949107864230e+00 -1.130042739539305785e+02 -1.201727470416516041e+02 5.418552258927017817e+01 6.442789184225956944e+01 -1.167385894419853258e+02 -2.039651030491081656e+02 -2.553071219484161816e+02 -2.135284454123090256e+02 -1.579903706132720345e+02 -1.125132884318743010e+02 -9.509243329305732573e+01
6.784697710351870192e+00 -1.168354220178048166e+02 -1.225511893620209349e+02 5.654109994252917915e+01 6.511787278440849036e+01 -1.196168018859149953e+02 -2.053791472692503817e+02 -2.575740026880010305e+02 -2.154402780774024393e+02 -1.592590126159435897e+02 -1.143714089546855632e+02 -9.620280487570144601e+01
5.710473055729822001e+00 -1.201145456121180644e+02 -1.251554671833470849e+02 5.877606587720378428e+01 6.551829547926847397e+01 -1.222163960071664803e+02 -2.074722716734462153e+02 -2.599225458113696163e+02 -2.172444600011323246e+02 -1.602322690289431932e+02 -1.155334289004581478e+02 -9.709074325570846042e+01
4.863002944733229249e+00 -1.223882368045836273e+02 -1.273511703717243648e+02 6.022068831105553954e+01 6.615962966709305704e+01 -1.243806716134187127e+02 -2.093043273761558112e+02 -2.625273958035664350e+02 -2.194694358995284347e+02 -1.611978663410349384e+02 -1.160818301388237188e+02 -9.826171454320505916e+01
4.264214354648908412e+00 -1.243457521370146708e+02 -1.284581185969620378e+02 6.119062826066455330e+01 6.711713159693587727e+01 -1.260073251799148579e+02 -2.107604460500175776e+02 -2.647248154475438469e+02 -2.214865442927120398e+02 -1.621634256195893613e+02 -1.164267052032198819e+02 -9.979917141555860383e+01
3.988834843849770717e+00 -1.263067510944592158e+02 -1.291409683154249421e+02 6.216135714504487453e+01 6.817518217532030178e+01 -1.271745715502920149e+02 -2.122676815232863987e+02 -2.675707677809012353e+02 -2.233045461183985481e+02 -1.631751914874828628e+02 -1.171623209371327903e+02 -1.012070868002967217e+02
4.250894122750496606e+00 -1.276251227922014948e+02 -1.304034689931712307e+02 6.291089936736907617e+01 6.910405537646747121e+01 -1.281289740197702542e+02 -2.140018413177398884e+02 -2.708891296159638387e+02 -2.246728901666333229e+02 -1.641208439859716748e+02 -1.181645930881340121e+02 -1.022297527727482418e+02
5.155572867704917073e+00 -1.280265846290424747e+02 -1.322723352593660024e+02 6.296357179826122774e+01 7.017602138950167046e+01 -1.291534692987043229e+02 -2.150782737339805522e+02 -2.745179757403976737e+02 -2.262625066854687361e+02 -1.651583121434990460e+02 -1.191249899024104337e+02 -1.031352914288002722e+02
6.210383489272149227e+00 -1.283146452154430790e+02 -1.338770747932200038e+02 6.248058953676993355e+01 7.157238735104436955e+01 -1.301872736783010112e+02 -2.151948676097578357e+02 -2.771138384450419494e+02 -2.277562469180876121e+02 -1.661576691917034339e+02 -1.196540137443475800e+02 -1.041771455555322348e+02
7.098813462298704913e+00 -1.291077317460179472e+02 -1.351526507258570291e+02 6.194372820871132745e+01 7.318360746899553249e+01 -1.311020807173879632e+02 -2.149876612985231077e+02 -2.792862426774919413e+02 -2.291729534989929107e+02 -1.671141694378942191e+02 -1.200658355125371202e+02 -1.050840159297944183e+02
7.977225664454820730e+00 -1.298187601455987306e+02 -1.365520310183391359e+02 6.144698004579224460e+01 7.441052458110273449e+01 -1.319519493887194699e+02 -2.153784722892928016e+02 -2.814387948943132756e+02 -2.300924290062361024e+02 -1.679889203785911036e+02 -1.207422682701479317e+02 -1.055718203548469774e+02
9.105737112875306849e+00 -1.300137740502195527e+02 -1.381385998336940304e+02 6.096826944541815152e+01 7.504337984943160222e+01 -1.331264745802461107e+02 -2.160399960746243835e+02 -2.843028402401630501e+02 -2.311312243155347232e+02 -1.691231969765182157e+02 -1.221664453606207843e+02 -1.060661570698662501e+02
1.000056942376026115e+01 -1.304545450440528498e+02 -1.392524666411247551e+02 6.096598015061402975e+01 7.538547155627550467e+01 -1.346040619188242147e+02 -2.162745784865895473e+02 -2.868914522949833099e+02 -2.323352339235866850e+02 -1.705051426213699415e+02 -1.240699175326678585e+02 -1.072518653278248024e+02
9.967254867052902867e+00 -1.321448717294101698e+02 -1.400656045377227485e+02 6.210973674539000910e+01 7.605997369229842775e+01 -1.360937382733559673e+02 -2.159731892452405759e+02 -2.891696563249931273e+02 -2.341578797237179117e+02 -1.721136165698301284e+02 -1.261387691218316576e+02 -1.091236837156151580e+02
8.782229456401688950e+00 -1.346446516818665486e+02 -1.412528390510761653e+02 6.437150060452088951e+01 7.684499313728598224e+01 -1.374040183156642740e+02 -2.160379555687738105e+02 -2.909657798516608977e+02 -2.363583740449164168e+02 -1.738491427617543934e+02 -1.280175056013959249e+02 -1.108560753677496820e+02
6.934783122875562533e+00 -1.370900126219515869e+02 -1.430788803317709039e+02 6.709802166454905148e+01 7.699558721472247669e+01 -1.390801771019081912e+02 -2.170441331508375526e+02 -2.931233023210207875e+02 -2.391312809278949771e+02 -1.761012315565650397e+02 -1.300956635229672145e+02 -1.120405541492761188e+02
4.917074589989916866e+00 -1.395813438289623889e+02 -1.447287278558264347e+02 6.966199976913074465e+01 7.608976713037128548e+01 -1.413962335975552662e+02 -2.189094864043645714e+02 -2.954103740365924864e+02 -2.417693351209316575e+02 -1.788984145798449390e+02 -1.324504389797742192e+02 -1.131689430689032037e+02
2.987968828931750309e+00 -1.430434074600729559e+02 -1.460251527920125056e+02 7.202423461657963344e+01 7.500296244533737422e+01 -1.440332896317378868e+02 -2.210101080410869088e+02 -2.980641146046739323e+02 -2.440478444006323855e+02 -1.820388710733753044e+02 -1.350406414820115231e+02 -1.150252679933737596e+02
1.073813968012312881e+00 -1.472030128994950076e+02 -1.473715906556543871e+02 7.437907045789381755e+01 7.465680618852471184e+01 -1.461985299963284035e+02 -2.230285612592992663e+02 -3.005313310125856106e+02 -2.458035385211623804e+02 -1.850245709422071343e+02 -1.374359295425144296e+02 -1.174965200876421392e+02
-9.581101934604936421e-01 -1.509544461308326220e+02 -1.489899817109283333e+02 7.695769835449367235e+01 7.500384337929921230e+01 -1.479831035737221896e+02 -2.249572334066908184e+02 -3.029974646519112298e+02 -2.479843284415883033e+02 -1.879598493260508576e+02 -1.399722691696046581e+02 -1.199669015091234030e+02
-3.100440436442986059e+00 -1.536342565613569207e+02 -1.499419477991683323e+02 7.959092277959322814e+01 7.494901130799715361e+01 -1.498061133491784176e+02 -2.271794666717146072e+02 -3.052349424969431197e+02 -2.507453183929112015e+02 -1.909086084854606611e+02 -1.427952222541312324e+02 -1.220069607992933669e+02
-4.930389722174073341e+00 -1.559140987611791900e+02 -1.500252886879829930e+02 8.191842729405648527e+01 7.406460271544895591e+01 -1.519241603701506449e+02 -2.298661612114971717e+02 -3.079092063073839540e+02 -2.538943889136244820e+02 -1.938866205130195510e+02 -1.458897207736164603e+02 -1.239227080654844002e+02
-6.113792105127904719e+00 -1.581045281036356016e+02 -1.500376482381283836e+02 8.359179473654342019e+01 7.282222502176850298e+01 -1.537170371480925155e+02 -2.326953931683452765e+02 -3.108253095746053418e+02 -2.565584286035607420e+02 -1.965115754678877522e+02 -1.485591207570492998e+02 -1.258976583649322976e+02
-6.935895610291336055e+00 -1.599216201487483318e+02 -1.509352829014651434e+02 8.491872878253738577e+01 7.204269448663472986e+01 -1.549541531898258029e+02 -2.348785592029857128e+02 -3.138386818529396578e+02 -2.588736345558048129e+02 -1.988570342748638211e+02 -1.508705839480142004e+02 -1.278803393709910239e+02
-7.965892292163777810e+00 -1.607904334045164489e+02 -1.519252697646834349e+02 8.614757723728735073e+01 7.180796542487888701e+01 -1.556273793235038170e+02 -2.361223072155400473e+02 -3.162948917736273984e+02 -2.608998341723798831e+02 -2.009436062045705000e+02 -1.529208068170695469e+02 -1.295220525585670828e+02
-8.945357047510464454e+00 -1.610234408210046411e+02 -1.520669355716571260e+02 8.698523512529671109e+01 7.198121957877629029e+01 -1.560113197542464434e+02 -2.369158662812077409e+02 -3.187755873687242456e+02 -2.628535249220350352e+02 -2.028482416634722654e+02 -1.548647229379847374e+02 -1.308930709164465895e+02
-8.845477422211699192e+00 -1.607746161074567226e+02 -1.513523248044513423e+02 8.661609770652881934e+01 7.234326227858259983e+01 -1.557808076167367233e+02 -2.378797255898597314e+02 -3.215430879718779238e+02 -2.643878863051009489e+02 -2.043684795622323520e+02 -1.561240901654757067e+02 -1.320006890946729641e+02
-7.265976599316554818e+00 -1.601443688628366999e+02 -1.510130356948679662e+02 8.521870228737199682e+01 7.292675518714428051e+01 -1.551217617801197264e+02 -2.388944418845071596e+02 -3.246625245618534450e+02 -2.658411246013590130e+02 -2.058271303615985630e+02 -1.569386241230500048e+02 -1.329240289860243536e+02
-5.085316073388398195e+00 -1.588744517284395101e+02 -1.513137112195088321e+02 8.362074041065065444e+01 7.367426405167907433e+01 -1.543666783655106940e+02 -2.395303664854523902e+02 -3.273085156043754864e+02 -2.673097591625942187e+02 -2.073670070289926741e+02 -1.577055036411584297e+02 -1.334874069760823545e+02
-3.248411993860167435e+00 -1.572908819747831330e+02 -1.519423208194729398e+02 8.225085184705251606e+01 7.480417435830240436e+01 -1.540558201814570793e+02 -2.399240288105706895e+02 -3.296761613143887075e+02 -2.688245352540590147e+02 -2.088428466030151185e+02 -1.588617420956476849e+02 -1.339477788100648752e+02
-1.561068363659257940e+00 -1.553804474813344143e+02 -1.523745351155760375e+02 8.027613543769864179e+01 7.627111560395186984e+01 -1.537356806204186910e+02 -2.406476150832734788e+02 -3.320391992974917912e+02 -2.698916730000255484e+02 -2.096241768187302057e+02 -1.596855849833229115e+02 -1.344128788117359647e+02
5.708699853769392263e-01 -1.533889046809950116e+02 -1.529211931536241309e+02 7.752371064653149801e+01 7.778032502532835224e+01 -1.531669054013736115e+02 -2.417929254861060713e+02 -3.346028850822424374e+02 -2.708322451347490301e+02 -2.099533578172460864e+02 -1.600143237003032368e+02 -1.349504268611245266e+02
2.947285037261501817e+00 -1.514151039171914874e+02 -1.534471047852736660e+02 7.501855848439583951e+01 7.887189136903846531e+01 -1.523335032112858300e+02 -2.428590282529564774e+02 -3.367100184700025807e+02 -2.720495235897017210e+02 -2.105149673830884183e+02 -1.601077959385493727e+02 -1.351221611209220725e+02
4.741019511885372850e+00 -1.501784250558848441e+02 -1.539470595884984050e+02 7.404836895237312433e+01 7.980263532214182476e+01 -1.520160251702712344e+02 -2.437811229418168466e+02 -3.386115738227413203e+02 -2.736962084123072145e+02 -2.117470030311838798e+02 -1.608227948561612379e+02 -1.350410574189078261e+02
5.675216894229489384e+00 -1.497128256800923225e+02 -1.542852076449379126e+02 7.408497669517450390e+01 8.088844038853149243e+01 -1.522432788290605572e+02 -2.451729157488153703e+02 -3.408075394585019922e+02 -2.750122299298784583e+02 -2.128136112227532522e+02 -1.618525873515330886e+02 -1.350632465848381116e+02
5.987214163511212384e+00 -1.499465273465775397e+02 -1.548761283314582897e+02 7.408552193816819909e+01 8.188822258408677612e+01 -1.528894555350588291e+02 -2.474214804852874181e+02 -3.434555275211429262e+02 -2.758454408438352630e+02 -2.130717911503687674e+02 -1.628605754564444794e+02 -1.357820959643087235e+02
5.840134300870038153e+00 -1.502851717980230717e+02 -1.554489541427163886e+02 7.374468915018323401e+01 8.196411421013789322e+01 -1.533809347556214675e+02 -2.498471842243523042e+02 -3.455010682191796718e+02 -2.767369289942983528e+02 -2.127343693190751424e+02 -1.634118685297892171e+02 -1.368359837497219189e+02
5.197849511042726078e+00 -1.508611307199519445e+02 -1.559367909785348161e+02 7.388940922647665843e+01 8.122031255928587257e+01 -1.539026223833618587e+02 -2.516563855585155238e+02 -3.467400928618864668e+02 -2.784593175431211876e+02 -2.128605391671173948e+02 -1.639170349756534790e+02 -1.378236670574189873e+02
4.470394585377677643e+00 -1.515625095595507048e+02 -1.562538117902188617e+02 7.445093104473578194e+01 8.062235004006187467e+01 -1.543569321961075502e+02 -2.529197676168034263e+02 -3.480206500497679372e+02 -2.806402575164033806e+02 -2.136533223128709267e+02 -1.642951512507255813e+02 -1.385315545184720634e+02
4.054993279749580459e+00 -1.526857783523181240e+02 -1.568544109649830034e+02 7.495231112703588394e+01 8.086080641094974908e+01 -1.549166452850802216e+02 -2.544655336174974707e+02 -3.502738781896055684e+02 -2.825689641980878832e+02 -2.147379044524606400e+02 -1.648503079159357867e+02 -1.396212361447414594e+02
3.825713039726233777e+00 -1.538440794396174454e+02 -1.572871019796086784e+02 7.513377443117562393e+01 8.128290089011900932e+01 -1.551357497773674083e+02 -2.564851572293457593e+02 -3.527553644341051040e+02 -2.839842733899259883e+02 -2.156333613333110293e+02 -1.655421188229057066e+02 -1.411203785764230076e+02
3.242291016052662567e+00 -1.548615189290478042e+02 -1.572043595835860970e+02 7.572978924592000283e+01 8.116755205786806471e+01 -1.551088664524234275e+02 -2.584857656923303466e+02 -3.545795139831876099e+02 -2.854703125471429530e+02 -2.166456528013140996e+02 -1.666692725412745801e+02 -1.426674432218596564e+02
2.459676216753980071e+00 -1.550990469939836487e+02 -1.564820386268665402e+02 7.673671592408489062e+01 8.057212925733817599e+01 -1.547959677661028763e+02 -2.600038899686659306e+02 -3.559888823829599005e+02 -2.873114635141097324e+02 -2.179216754585933984e+02 -1.677321234602443951e+02 -1.435242593431878220e+02
2.009423838689844199e+00 -1.550303594806890715e+02 -1.560474986097023020e+02 7.777634962722054013e+01 8.010779128317982156e+01 -1.548875439683654065e+02 -2.614506376925386348e+02 -3.581075817558993322e+02 -2.893410873187199286e+02 -2.194838413196673059e+02 -1.687325417675771178e+02 -1.439453507255597913e+02
2.081001563320362902e+00 -1.552301914797187692e+02 -1.561337921929018364e+02 7.834396073871160127e+01 7.986210334426773727e+01 -1.554534185555878594e+02 -2.632406439907662161e+02 -3.608510223518932776e+02 -2.912718519446686969e+02 -2.210148528540473478e+02 -1.695855152158753754e+02 -1.440947734947821459e+02
2.083171742057749132e+00 -1.564572519745223076e+02 -1.567503798655781111e+02 7.884626728802884088e+01 7.988544885728450140e+01 -1.565927305712426403e+02 -2.653126782766107112e+02 -3.633003201516854688e+02 -2.932483828376330734e+02 -2.225188191276252496e+02 -1.706720790693580625e+02 -1.441267581497608887e+02
1.726161412372611004e+00 -1.579985841786620711e+02 -1.575917883375892075e+02 7.929062187065345313e+01 8.042581795047073001e+01 -1.577659100311866780e+02 -2.670612860317038439e+02 -3.651121084542933772e+02 -2.953426153375554009e+02 -2.237591403129761716e+02 -1.714807322290450315e+02 -1.436754367574617106e+02
1.161423323105793770e+00 -1.595042735135529597e+02 -1.591937603068142266e+02 7.981293798747630319e+01 8.155930169446118327e+01 -1.593051740885689753e+02 -2.684705220503770988e+02 -3.670817215750203673e+02 -2.973281523758625440e+02 -2.247174378851152881e+02 -1.719531671960886854e+02 -1.431735684547223855e+02
8.413909339779676033e-01 -1.608918279664922011e+02 -1.614610815590098980e+02 8.040553172150129058e+01 8.252397416855066581e+01 -1.613138472269757813e+02 -2.699594856779602878e+02 -3.695580169771433248e+02 -2.989342043645539206e+02 -2.254525948747732400e+02 -1.721079029520954009e+02 -1.428658059033336940e+02
8.549909238818037549e-01 -1.630045007073532020e+02 -1.640540749484304968e+02 8.150752456320137185e+01 8.289210575611757292e+01 -1.639575945150814675e+02 -2.720373028634073194e+02 -3.720628282289318349e+02 -3.003541957083513694e+02 -2.264757199790272750e+02 -1.726853366474347808e+02 -1.429695141810817063e+02
1.299638278745843811e+00 -1.654690495588417605e+02 -1.662053114913312868e+02 8.266463784982889251e+01 8.336870440736542776e+01 -1.663337478253224333e+02 -2.743414812010806827e+02 -3.742706704373824209e+02 -3.020202151492362646e+02 -2.278299720441854106e+02 -1.735304722236878376e+02 -1.430808346924137027e+02
1.841980269782117929e+00 -1.680049306359240120e+02 -1.681706957776390823e+02 8.364866937474376130e+01 8.498635873002277208e+01 -1.682894720755285789e+02 -2.763331294880449036e+02 -3.767206017990422424e+02 -3.040488889474832490e+02 -2.293677636512030631e+02 -1.745956763887217846e+02 -1.436021769246026452e+02
1.996892534873562219e+00 -1.702713061061644453e+02 -1.700859083414649717e+02 8.454906034829915029e+01 8.727335307885421400e+01 -1.699378492449608586e+02 -2.777344887201446682e+02 -3.797276580331686660e+02 -3.061697395730693074e+02 -2.307784074048585694e+02 -1.755126692028369177e+02 -1.447079796207956406e+02
1.375946776419874062e+00 -1.728556057016969021e+02 -1.721456636170929642e+02 8.614748038884026471e+01 8.878952618223995330e+01 -1.720187880137912373e+02 -2.791799953400035861e+02 -3.827551651182956221e+02 -3.081189900999063411e+02 -2.322755363623845142e+02 -1.765658367162503168e+02 -1.463474355699289902e+02
6.741739450375036080e-01 -1.751496170056728374e+02 -1.738789040080636710e+02 8.789114108883211429e+01 8.896565405634562751e+01 -1.740388281240495019e+02 -2.810638570428560570e+02 -3.852755543643524447e+02 -3.100017777274316018e+02 -2.338322339611631548e+02 -1.774751774273077842e+02 -1.475961047493002525e+02
6.675169817705041142e-01 -1.766858590663699431e+02 -1.753889175755236067e+02 8.893940747708717254e+01 8.883410195780083995e+01 -1.755927425098794288e+02 -2.831835472406804683e+02 -3.876601517478595156e+02 -3.119727752501789837e+02 -2.353523804508779449e+02 -1.784839443967195507e+02 -1.485424635757008218e+02
1.416708354858960739e+00 -1.771851275736126468e+02 -1.765703898909262932e+02 8.890705932925503419e+01 8.937858982815779996e+01 -1.762673245540480025e+02 -2.845667461935428832e+02 -3.904852244290290173e+02 -3.140404116333533011e+02 -2.366320782918648149e+02 -1.796222525401389589e+02 -1.495929095358110317e+02
1.945202784935142759e+00 -1.777213230181646111e+02 -1.776195753761361402e+02 8.889602884328934351e+01 9.047084778797859883e+01 -1.767769554172356834e+02 -2.850041676952490661e+02 -3.935282852359130743e+02 -3.160044062862421583e+02 -2.380895694906192261e+02 -1.812220791037787819e+02 -1.512080599206695126e+02
1.948143215626883640e+00 -1.782118710095439553e+02 -1.782731663189389053e+02 8.912957286670636847e+01 9.138125787384745990e+01 -1.772205501373543086e+02 -2.850296619055879432e+02 -3.962247745688801501e+02 -3.179061213038154392e+02 -2.399303225111168274e+02 -1.826091494221853964e+02 -1.526088233396617397e+02
1.838787160611062177e+00 -1.783233749914341502e+02 -1.787927958763420691e+02 8.923578215788704426e+01 9.187068357301357935e+01 -1.777907702437199760e+02 -2.855502153074381795e+02 -3.986083642660051396e+02 -3.198571508261440499e+02 -2.420068338285410903e+02 -1.836105876792267111e+02 -1.536021948864377578e+02
2.238952901461810807e+00 -1.776830760807538354e+02 -1.791745587662526589e+02 8.875789947611252728e+01 9.205602879406617944e+01 -1.781599092720180124e+02 -2.863706944369182565e+02 -4.012409336879706530e+02 -3.219464386883844895e+02 -2.437034183833529823e+02 -1.843844828624020522e+02 -1.543626171841026746e+02
2.787302820479035770e+00 -1.776002869513002906e+02 -1.797124752408214476e+02 8.869218737425447330e+01 9.205530003918723025e+01 -1.787078632446241215e+02 -2.869458742578433430e+02 -4.042347761909383621e+02 -3.239290199935400096e+02 -2.451220963313459436e+02 -1.858801635367878191e+02 -1.554582980708710807e+02
3.039648697879194117e+00 -1.785075969782058110e+02 -1.802103498546641731e+02 8.937258489611515699e+01 9.196347577249903793e+01 -1.792061613076245976e+02 -2.869942372371747297e+02 -4.072690181988042468e+02 -3.257668692023306107e+02 -2.467799268328764697e+02 -1.878805568299700894e+02 -1.562930296993254444e+02
2.589768520294905230e+00 -1.801566256239579786e+02 -1.807749022350127177e+02 9.048018529635157847e+01 9.197062095282549876e+01 -1.797552799396312651e+02 -2.873648126488515118e+02 -4.101778687138857435e+02 -3.276436030860361939e+02 -2.492448213605441367e+02 -1.899616753549722432e+02 -1.567690919997922094e+02
1.459827574327683175e+00 -1.814909662371308627e+02 -1.810908204331878721e+02 9.133225861837001958e+01 9.198134655089361900e+01 -1.801920715120768079e+02 -2.886158675092276553e+02 -4.132677808817838354e+02 -3.300163815747699800e+02 -2.521997733892534939e+02 -1.916518055307568602e+02 -1.572736553542668503e+02
-5.073225764690967310e-01 -1.829503981900919030e+02 -1.811766599727027085e+02 9.270275606409414593e+01 9.158586737544889900e+01 -1.811600526377715710e+02 -2.906835660352657555e+02 -4.166921982149208361e+02 -3.329320382374626774e+02 -2.552168846558417954e+02 -1.935992495007048717e+02 -1.587589819152820496e+02
-2.915206396903745389e+00 -1.846829389275600590e+02 -1.808346755365464560e+02 9.490143444264928974e+01 9.054644974029072557e+01 -1.825557221299080766e+02 -2.927228143443043109e+02 -4.203968875629586250e+02 -3.362645825236795645e+02 -2.580355071025309712e+02 -1.958824966342338882e+02 -1.607489189537493246e+02
-5.425379375737711563e+00 -1.867685445419682253e+02 -1.803756958437344053e+02 9.754487907738580077e+01 8.907509240559191710e+01 -1.841857861839168606e+02 -2.946475171805053606e+02 -4.242849168637072808e+02 -3.397006014336948283e+02 -2.609827847302747728e+02 -1.984411126941350858e+02 -1.627557890950341459e+02
-7.848534222910332758e+00 -1.886368987200243623e+02 -1.797967375994662689e+02 9.968587132689995656e+01 8.740283961981688776e+01 -1.853407223973634359e+02 -2.968126772274146674e+02 -4.284809900239958438e+02 -3.432118445505001887e+02 -2.640686568596186135e+02 -2.007904538455953514e+02 -1.647314690948930718e+02
-1.072958784934590426e+01 -1.910064211939092900e+02 -1.793322164765979778e+02 1.019905330348249066e+02 8.547210644277421920e+01 -1.863413572447248896e+02 -2.997610910278634719e+02 -4.329122486968267935e+02 -3.466570336369260303e+02 -2.671307311502690709e+02 -2.032693976792748458e+02 -1.676311662060519723e+02
-1.411270617492477619e+01 -1.940057253337781731e+02 -1.788426472875791546e+02 1.050730752020167245e+02 8.330095113818084940e+01 -1.873213120724389285e+02 -3.030308123451609958e+02 -4.374360429218549484e+02 -3.500907502770278370e+02 -2.698061560277345734e+02 -2.058068358734449532e+02 -1.711074650549264220e+02
-1.770503536997180305e+01 -1.972677924211167522e+02 -1.784286590352355972e+02 1.087800358315946596e+02 8.122651813844618118e+01 -1.884703653502475618e+02 -3.061089136603573024e+02 -4.418890781885096999e+02 -3.534980155237522013e+02 -2.722761036961961736e+02 -2.083944185166858745e+02 -1.743125899321662473e+02
-2.085327751329958446e+01 -1.995338850783266764e+02 -1.777722004497835258e+02 1.117373668133106150e+02 7.955410342340492491e+01 -1.891096970732051545e+02 -3.087487380503000054e+02 -4.462517799578289441e+02 -3.570445938819499361e+02 -2.747160060103947217e+02 -2.106006500280505236e+02 -1.766045279141601441e+02
-2.350122974032091605e+01 -2.010903751965842901e+02 -1.768661135329435297e+02 1.138206875431757510e+02 7.810959815268670070e+01 -1.892314793344106647e+02 -3.116184956422525829e+02 -4.502948615160447048e+02 -3.605373482422258462e+02 -2.772559897373743638e+02 -2.126550209035452497e+02 -1.789595118026654177e+02
-2.543014319296803549e+01 -2.022926005088258989e+02 -1.756715818908858182e+02 1.153857096160791826e+02 7.658024213124365076e+01 -1.888807103798251319e+02 -3.148837455360668969e+02 -4.539260239018107086e+02 -3.638526729425838653e+02 -2.795801798629633481e+02 -2.144414979569582727e+02 -1.817691654601274820e+02
-2.664036635736811576e+01 -2.032172556873568965e+02 -1.746322916240484631e+02 1.167225960371879978e+02 7.497872972220446286e+01 -1.885239336177403686e+02 -3.181388366147516535e+02 -4.573185897071041381e+02 -3.668377044945474950e+02 -2.816368571144439557e+02 -2.160533845728865003e+02 -1.846030713499855835e+02
-2.702086174986600753e+01 -2.027178467331518164e+02 -1.738297780144214926e+02 1.168935385302967944e+02 7.378316127358066012e+01 -1.877535945214966091e+02 -3.204390638169742829e+02 -4.608637358707494514e+02 -3.696600469667442894e+02 -2.833933585017206838e+02 -2.172470240664695211e+02 -1.862616843834417750e+02
-2.680941311830569518e+01 -2.009213235889609450e+02 -1.733462056425677531e+02 1.157067792306486069e+02 7.347205346309335994e+01 -1.864479278724789140e+02 -3.219302526248802110e+02 -4.644409679857063225e+02 -3.722022745311647327e+02 -2.849790398605742325e+02 -2.183127249344641427e+02 -1.868970601988071110e+02
-2.565299650882402460e+01 -1.984620566323951039e+02 -1.728972060306270180e+02 1.134748029916667917e+02 7.424574323763384598e+01 -1.845838688300595436e+02 -3.233246777609389824e+02 -4.676201393757842766e+02 -3.744553481301591660e+02 -2.862329366872291416e+02 -2.191495800721035039e+02 -1.870005906887349738e+02
-2.342460008115332926e+01 -1.961532500827644583e+02 -1.724616054667248477e+02 1.110693933695644944e+02 7.572844440457200221e+01 -1.829797969772312456e+02 -3.253118024740578562e+02 -4.701518011472792296e+02 -3.764192514472694597e+02 -2.872739943149440478e+02 -2.198176531251013444e+02 -1.871304468667994456e+02
-2.042863512159321360e+01 -1.934406228399784027e+02 -1.718793818574765453e+02 1.085076933019332728e+02 7.725833354770121275e+01 -1.818002829194130356e+02 -3.273357957455805263e+02 -4.724257497218354160e+02 -3.783594291723113656e+02 -2.881456988887127864e+02 -2.199793700516302124e+02 -1.869187223664060866e+02
-1.777492929660548526e+01 -1.904224355349087716e+02 -1.713425049298775207e+02 1.060316005221506401e+02 7.832570461466808354e+01 -1.809327235103602334e+02 -3.289305242681604682e+02 -4.748285489701772235e+02 -3.800324608190486515e+02 -2.888490576918927673e+02 -2.196915376616897220e+02 -1.864889872214160107e+02
-1.568227746680090640e+01 -1.875913390361989741e+02 -1.709498182009389780e+02 1.036199294641663613e+02 7.913254150787012975e+01 -1.797903632552145723e+02 -3.302065388539808168e+02 -4.774129195570473030e+02 -3.811325134056689308e+02 -2.889659457059555621e+02 -2.188249497738145521e+02 -1.858952715771384874e+02
-1.378304310188459425e+01 -1.858744460891045662e+02 -1.708954021014238833e+02 1.015790251849220738e+02 8.006393741697095834e+01 -1.786772379150154109e+02 -3.320236306570722604e+02 -4.799193806266609954e+02 -3.815940882890297985e+02 -2.885380920536040890e+02 -2.178130882580297225e+02 -1.854649502944201913e+02
-1.173182249710620084e+01 -1.848749833842075532e+02 -1.710190857624824901e+02 9.976864294031631175e+01 8.113623364120425663e+01 -1.779234967926649915e+02 -3.342929459042050553e+02 -4.823147349163778586e+02 -3.820954970585112846e+02 -2.879192042544400465e+02 -2.168767484397759802e+02 -1.849039627479271815e+02
-1.034752573655488384e+01 -1.843006649161322628e+02 -1.713899321173094279e+02 9.856125765048685139e+01 8.183572389926335688e+01 -1.778470981696757178e+02 -3.364553707952538844e+02 -4.847100085734217032e+02 -3.829856051170452815e+02 -2.875061016005321903e+02 -2.160968549438274522e+02 -1.843819685258860943e+02
-9.990309725288241793e+00 -1.839731618236058353e+02 -1.720862832354716545e+02 9.794798149558229738e+01 8.200369021625023436e+01 -1.780094291419975150e+02 -3.381669227703134766e+02 -4.872835144547639743e+02 -3.841235113282992302e+02 -2.869076004065656775e+02 -2.148233615897254367e+02 -1.839534250663189709e+02
-1.019445777194578362e+01 -1.843602957178626127e+02 -1.731380720761566465e+02 9.791709280769877921e+01 8.191842111477284050e+01 -1.783967854862188744e+02 -3.402873890667545993e+02 -4.901082128158517435e+02 -3.850841723103141589e+02 -2.859102851601789439e+02 -2.131616888568404420e+02 -1.839371970073593161e+02
-9.946317028112590108e+00 -1.850337308899880213e+02 -1.740516203933694896e+02 9.799411693753414454e+01 8.202416650740111947e+01 -1.790537484216596340e+02 -3.432442967066674555e+02 -4.932604039011156374e+02 -3.860972667294102507e+02 -2.849403084698084854e+02 -2.119353672431057873e+02 -1.839848804791700161e+02
-9.394233165460919466e+00 -1.856490139186676345e+02 -1.745866542427405932e+02 9.838046851957416550e+01 8.237581539062573199e+01 -1.801216465481942635e+02 -3.465499321611354162e+02 -4.966703299702649588e+02 -3.874245664473368720e+02 -2.849774654406926970e+02 -2.121056830878067387e+02 -1.840302844789973733e+02
-8.973071240567692897e+00 -1.860029353503843481e+02 -1.750260190950003505e+02 9.902037231342036705e+01 8.304989313243490301e+01 -1.810235551264754008e+02 -3.490966037714725303e+02 -5.001831624693737695e+02 -3.890983526140115032e+02 -2.860634832150789180e+02 -2.130353898285826517e+02 -1.839846048566571710e+02
-8.951168048161315838e+00 -1.867681118124512807e+02 -1.758957707520774250e+02 9.974040161141516592e+01 8.399547076234151177e+01 -1.815582815513865000e+02 -3.510144986317321809e+02 -5.036523877891401071e+02 -3.908855638336304423e+02 -2.875859256421808823e+02 -2.137105461985158286e+02 -1.843174370701068199e+02
-8.987009972235387778e+00 -1.880184418763612086e+02 -1.770244155633780565e+02 9.998433718610493770e+01 8.503122215791563576e+01 -1.820050865051025255e+02 -3.530454770056360871e+02 -5.070874886755578927e+02 -3.930704052953583414e+02 -2.890276545833825139e+02 -2.139992616359204192e+02 -1.850036504986016439e+02
-9.315329521878581431e+00 -1.895734540733793665e+02 -1.780076999913049463e+02 1.002099858457585100e+02 8.569259338653152724e+01 -1.831462183997152522e+02 -3.556233648076222380e+02 -5.105353825834688450e+02 -3.958566021124621557e+02 -2.907721364853881028e+02 -2.150182886938263778e+02 -1.860000890898434136e+02
-9.983126645930260779e+00 -1.909809834324576059e+02 -1.789965354262335495e+02 1.009810655951829119e+02 8.600844971327042288e+01 -1.849867206813752887e+02 -3.579842452386135960e+02 -5.139952286417526466e+02 -3.990032098135035881e+02 -2.929866077774185555e+02 -2.169858249491718141e+02 -1.869808786952071387e+02
-1.074405268652083478e+01 -1.926508143901558014e+02 -1.806445885940643166e+02 1.024883434116055270e+02 8.631570503769708580e+01 -1.870883216379756391e+02 -3.596844823607174817e+02 -5.174518455657331515e+02 -4.019516206314380042e+02 -2.954601670081963221e+02 -2.191610934794024104e+02 -1.882551379124560924e+02
-1.098271867115600564e+01 -1.949105535261661259e+02 -1.829339230638190656e+02 1.039465696655485658e+02 8.698662550744101907e+01 -1.889419437982537033e+02 -3.609504745677646156e+02 -5.209024268373931363e+02 -4.049174682588064229e+02 -2.979171181475603589e+02 -2.209406338674313304e+02 -1.899294139152191860e+02
-1.114250895622695658e+01 -1.978447873792502776e+02 -1.851169215466626383e+02 1.052618166412083696e+02 8.787914819451707160e+01 -1.907520389179451001e+02 -3.624330997955547673e+02 -5.243604344999114346e+02 -4.084905734235736645e+02 -3.008933581542726756e+02 -2.229961335180831270e+02 -1.919891611358071088e+02
-1.191489286732070241e+01 -2.008279993125328531e+02 -1.869044550576874997e+02 1.068740953296402978e+02 8.894924475544506492e+01 -1.928616825978086240e+02 -3.639150088480595286e+02 -5.278091987313450772e+02 -4.127667740295764247e+02 -3.047549990103844948e+02 -2.258169126179713828e+02 -1.938859754203390651e+02
-1.349522978890344760e+01 -2.037214642299842922e+02 -1.889589360417590740e+02 1.092641728817443010e+02 9.005616737837004848e+01 -1.955750976203463836e+02 -3.650582438287613627e+02 -5.312893446185653374e+02 -4.169901491611156530e+02 -3.092663984469531329e+02 -2.291904467595581991e+02 -1.957171716436616009e+02
-1.490038105137089808e+01 -2.067252982946938857e+02 -1.917579804872561056e+02 1.117941295863729181e+02 9.096355666083367453e+01 -1.987296525350395484e+02 -3.659096628332964656e+02 -5.347245567932616268e+02 -4.207201641273194923e+02 -3.136490941491551894e+02 -2.326962367897959894e+02 -1.977923068718880870e+02
-1.562567362230337586e+01 -2.101859738595707086e+02 -1.946514737445005778e+02 1.139555000952859700e+02 9.119202373531507533e+01 -2.019545343896059251e+02 -3.671595820530505989e+02 -5.379397521900136780e+02 -4.241832108077846328e+02 -3.177453512672251463e+02 -2.365694348234747224e+02 -2.003652323292128585e+02
-1.593651021544218516e+01 -2.136436415198286625e+02 -1.968211148459052424e+02 1.157825807723240104e+02 9.102493985217685690e+01 -2.047340053488356943e+02 -3.688091139728688859e+02 -5.407188004920327558e+02 -4.276447163046186688e+02 -3.215901743404554622e+02 -2.405879718132829908e+02 -2.027617853543184481e+02
-1.667611628062753226e+01 -2.165592976376064200e+02 -1.983338711110971246e+02 1.178235263180679766e+02 9.113174838508834341e+01 -2.069359283100745301e+02 -3.702711751118685584e+02 -5.432063344161149416e+02 -4.306779126065151786e+02 -3.250838917815140690e+02 -2.438548946404442574e+02 -2.045572309957726134e+02
-1.782357306617981152e+01 -2.187366074198448302e+02 -1.998075067802776346e+02 1.197697380621963674e+02 9.189171727535875789e+01 -2.087654150499748198e+02 -3.709445457806670561e+02 -5.456554520167304645e+02 -4.327921109006701386e+02 -3.277083605690214085e+02 -2.458008443350077243e+02 -2.058241279224543803e+02
-1.886760294045369690e+01 -2.205185067348920995e+02 -2.011480224106004471e+02 1.209709431625789477e+02 9.264679817001206175e+01 -2.104439012876772210e+02 -3.712574180723651693e+02 -5.482134033309768029e+02 -4.340504194394306978e+02 -3.294976812184202686e+02 -2.471989272782720093e+02 -2.070526299904428811e+02
-1.904631692349535754e+01 -2.218447909520869814e+02 -2.019389033394479895e+02 1.210476012680869928e+02 9.298907819125524554e+01 -2.118247568675959940e+02 -3.718448044307263558e+02 -5.506283177297329985e+02 -4.348873523812048347e+02 -3.307937152979805546e+02 -2.487493558210370566e+02 -2.079169960701643447e+02
-1.836381179796837770e+01 -2.224075241835871850e+02 -2.022715189677240915e+02 1.205871048774080663e+02 9.316912559597408006e+01 -2.126742615270767942e+02 -3.729019454239937090e+02 -5.527836887952666984e+02 -4.355038612484580085e+02 -3.319833098350004548e+02 -2.499848209223729611e+02 -2.079705036050721674e+02
-1.719848377449034160e+01 -2.221141511629403169e+02 -2.028576440676246477e+02 1.200796522169445097e+02 9.383723111618436974e+01 -2.129944530141259520e+02 -3.738560621483524642e+02 -5.546583646230960767e+02 -4.359294215037268145e+02 -3.328704545213175834e+02 -2.500899971503325787e+02 -2.071763865825755033e+02
-1.619106503504469785e+01 -2.213645672780408802e+02 -2.036646974370418377e+02 1.195125729790359372e+02 9.482555504788246026e+01 -2.128420073323289614e+02 -3.744379715124968016e+02 -5.563665716069564269e+02 -4.363310563726215605e+02 -3.332992164826291059e+02 -2.494665775549633793e+02 -2.061924930969413765e+02
-1.522772034991300671e+01 -2.202912811435664366e+02 -2.040454542183871069e+02 1.183377417047370699e+02 9.582118548807764569e+01 -2.122022552602549581e+02 -3.748662867789618645e+02 -5.577386847219709125e+02 -4.368674347887293834e+02 -3.331018196879145421e+02 -2.490387579386673167e+02 -2.052058129104212867e+02
-1.385057946681565255e+01 -2.186686252677249058e+02 -2.035944959054135666e+02 1.165179388111846635e+02 9.669859865729057447e+01 -2.111739082365010063e+02 -3.756397150084770260e+02 -5.588276226716318433e+02 -4.374719741820994159e+02 -3.323976420769702713e+02 -2.488422823808376450e+02 -2.041734581441703824e+02
-1.161401168908381187e+01 -2.165326894173057610e+02 -2.030623093750418491e+02 1.144626735458040230e+02 9.775011750746106998e+01 -2.102051537033520390e+02 -3.767188500690508590e+02 -5.597540420774562335e+02 -4.379214021352116220e+02 -3.312752467716605338e+02 -2.482289123909628756e+02 -2.031731067094778496e+02
-8.974483871291438319e+00 -2.144067509834437431e+02 -2.031336853305034822e+02 1.125838369311575207e+02 9.879469803939639405e+01 -2.093957801118367854e+02 -3.778265203839475248e+02 -5.607806525584661586e+02 -4.381448608052085092e+02 -3.301501638503642084e+02 -2.471961718915085271e+02 -2.026092825209756256e+02
-6.536978450194111723e+00 -2.125206133956383496e+02 -2.038278194955749996e+02 1.105947461906253722e+02 9.976775586863362832e+01 -2.083748844764880630e+02 -3.787542624180357507e+02 -5.617435784089151412e+02 -4.380678363068791441e+02 -3.292049068534100229e+02 -2.462399839397704966e+02 -2.021759322254700635e+02
-4.720973157110602614e+00 -2.104027306852520667e+02 -2.043302632596840169e+02 1.081909986133256325e+02 1.007002004328075060e+02 -2.068390974574680570e+02 -3.796966285111263346e+02 -5.626599848443745486e+02 -4.376988072749508092e+02 -3.284105429273986374e+02 -2.452268853946824265e+02 -2.012076241267288594e+02
-3.333733645784108024e+00 -2.078061865526207441e+02 -2.042094184316089809e+02 1.056523861803293158e+02 1.017538488671673491e+02 -2.053617848058998732e+02 -3.807078495728774783e+02 -5.636307360112496099e+02 -4.371453694991211023e+02 -3.273600044483230818e+02 -2.436021540263405427e+02 -1.995227602817837180e+02
-2.251025104831378520e+00 -2.051424966830582548e+02 -2.032491695084734147e+02 1.037008246312379640e+02 1.023817123609612736e+02 -2.042383176832883009e+02 -3.815851621752235019e+02 -5.650045332020735032e+02 -4.366839893346062240e+02 -3.260154886390041042e+02 -2.414836932270306136e+02 -1.978340312675723283e+02
-1.273107767990903083e+00 -2.027762505210208417e+02 -2.016599677922343687e+02 1.023834364103795309e+02 1.022306736661385713e+02 -2.027660099192933103e+02 -3.819752254283556567e+02 -5.665222430532822955e+02 -4.361976067308151528e+02 -3.244757438794540576e+02 -2.395550513673653938e+02 -1.964427942878161559e+02
-4.753348077502350111e-01 -2.001840108494343156e+02 -1.994480688578173897e+02 1.010905779703727063e+02 1.013837072611893859e+02 -1.998708240771485123e+02 -3.819541217491968723e+02 -5.678615518623751086e+02 -4.354345184302475786e+02 -3.229948192051977003e+02 -2.378114244062004730e+02 -1.948870217848775610e+02
-6.518153514218913598e-03 -1.970927182086417986e+02 -1.969378758542985395e+02 9.952450339985108485e+01 1.003960298257723736e+02 -1.961841644813397068e+02 -3.819277505911290973e+02 -5.687261071548252858e+02 -4.343488508690160188e+02 -3.215034042640181156e+02 -2.357769730891033646e+02 -1.927709273716274367e+02
-1.941230434910135860e-01 -1.941969014566332419e+02 -1.942509895780480633e+02 9.816250982989846818e+01 9.916137544959184424e+01 -1.932238082881094385e+02 -3.822581954211705693e+02 -5.695271581225264299e+02 -4.334623576305950223e+02 -3.200328947967640261e+02 -2.336293576921736985e+02 -1.906796437612721320e+02
-7.828217882356147683e-01 -1.924407135137584817e+02 -1.918247100315371654e+02 9.728599431947230869e+01 9.762586056027872417e+01 -1.915538826426136154e+02 -3.828059113977988659e+02 -5.705125999373004788e+02 -4.330269207671337313e+02 -3.185238398106931754e+02 -2.322612457141729294e+02 -1.893073267038047618e+02
-1.213293629415538533e+00 -1.912949238185065610e+02 -1.898106030217807358e+02 9.644319850515299208e+01 9.606933290601718056e+01 -1.899182873994413114e+02 -3.832723214032443479e+02 -5.718951717485792869e+02 -4.330765335574197366e+02 -3.171861540660103174e+02 -2.317419152467349477e+02 -1.886228211371548866e+02
-1.104253909129278677e+00 -1.897723681129286604e+02 -1.884568156344152499e+02 9.537257678559154783e+01 9.519320121754408603e+01 -1.878129598404047158e+02 -3.837152916662788584e+02 -5.733722137517652300e+02 -4.335832373068288348e+02 -3.162066610532862683e+02 -2.312953502608011718e+02 -1.881514311943312237e+02
-8.768357681290981365e-01 -1.879153122376418708e+02 -1.873760974386818248e+02 9.467263088815361982e+01 9.478769147123745142e+01 -1.861363826966289992e+02 -3.846387640252833080e+02 -5.749234083513501901e+02 -4.348327412326337367e+02 -3.158690129622630138e+02 -2.305168723514170495e+02 -1.878542215015904162e+02
-9.028712139996462049e-01 -1.870115459381230210e+02 -1.864271957350665616e+02 9.482796438198111844e+01 9.432493703041036781e+01 -1.858925664996878595e+02 -3.862390148104061609e+02 -5.763598591529412261e+02 -4.364106615361219497e+02 -3.159330599593350826e+02 -2.300304516091275673e+02 -1.879026005579772516e+02
-1.122719759685853136e+00 -1.871937964910489143e+02 -1.855032138555236259e+02 9.509788587917550728e+01 9.354139926487368939e+01 -1.860662578536312708e+02 -3.879143239343591745e+02 -5.778584598200744722e+02 -4.375484274912392948e+02 -3.160381139313214476e+02 -2.300748456397866164e+02 -1.881193175965874502e+02
-1.115904805625835383e+00 -1.873239062631097909e+02 -1.850744257676626319e+02 9.452898219311133232e+01 9.305184290124840629e+01 -1.855203453075465632e+02 -3.888501203232605121e+02 -5.793022084056814265e+02 -4.378757427166246998e+02 -3.159703024285080346e+02 -2.301374267590122429e+02 -1.881119805723907916e+02
-7.315787409828028443e-01 -1.863110526985340414e+02 -1.849943704515832792e+02 9.331816673393710460e+01 9.310122009409637656e+01 -1.844044485621428180e+02 -3.890916795169974876e+02 -5.808390947209625210e+02 -4.382970240863814979e+02 -3.161442912717079707e+02 -2.297304266304262512e+02 -1.877996282195584570e+02
2.603155643001071606e-01 -1.847426053683514056e+02 -1.850678126589204169e+02 9.236405488556599153e+01 9.365822155220168099e+01 -1.839861654605546448e+02 -3.895353575387352976e+02 -5.822764738206267339e+02 -4.393528744902008611e+02 -3.166847575158574273e+02 -2.292272186227591533e+02 -1.873096812351781182e+02
1.992096163985341395e+00 -1.832668437354928983e+02 -1.849025845633561005e+02 9.152855769047417311e+01 9.444054066920645596e+01 -1.840159103453097487e+02 -3.906385351995190831e+02 -5.837901153923584161e+02 -4.405956306862854603e+02 -3.172552204603740620e+02 -2.287156920508767541e+02 -1.865847467419482086e+02
4.102798200938871709e+00 -1.818894729467983211e+02 -1.849194291235807270e+02 9.003736057641995671e+01 9.549619957151654148e+01 -1.835803041029739688e+02 -3.917419026737926515e+02 -5.852441365145198233e+02 -4.410308566175366423e+02 -3.172367433132890824e+02 -2.277733543360015460e+02 -1.855709478586808530e+02
5.658806063522053620e+00 -1.800161027426721319e+02 -1.851253834135182785e+02 8.797975840850868678e+01 9.641098833702835691e+01 -1.823557457386008593e+02 -3.920337127212709447e+02 -5.866806138471230270e+02 -4.409192523652438354e+02 -3.166499233836862004e+02 -2.261405290031609638e+02 -1.844576146814225410e+02
6.516720800019918158e+00 -1.780132519442862247e+02 -1.852794223515446390e+02 8.647426289036644675e+01 9.691537695185635926e+01 -1.813855169077006622e+02 -3.918875383894078936e+02 -5.876459725074391827e+02 -4.408757769134844011e+02 -3.156495604706487370e+02 -2.245946638912283220e+02 -1.834861582916031466e+02
7.625877513966238475e+00 -1.761672903411028415e+02 -1.845098794174514580e+02 8.563072552381726155e+01 9.707564482517153692e+01 -1.806318540513852895e+02 -3.923153552339382486e+02 -5.882293012842727649e+02 -4.411044608977166490e+02 -3.143463105268525055e+02 -2.235948153685737054e+02 -1.825623763082404309e+02
9.694199312481625697e+00 -1.743538274531380239e+02 -1.829845683131613896e+02 8.431373533222213723e+01 9.757186184015070296e+01 -1.792967633005652033e+02 -3.934488341484643001e+02 -5.886091686108741214e+02 -4.410543986545567350e+02 -3.127704180479707361e+02 -2.227335174137980118e+02 -1.815736876096809453e+02
1.191325948734380624e+01 -1.717099278345555433e+02 -1.813186714164266675e+02 8.172504162032622332e+01 9.835399722815847667e+01 -1.768090512722205858e+02 -3.942394293653641739e+02 -5.894083731696632640e+02 -4.410261086672030046e+02 -3.115400329856085477e+02 -2.212955577877862083e+02 -1.805570782200455255e+02
1.335183785387543409e+01 -1.682720460566728775e+02 -1.803931677906727202e+02 7.866443548343787029e+01 9.894794987728985802e+01 -1.742734596574706813e+02 -3.941567283361209775e+02 -5.904103100879176509e+02 -4.414644338603213782e+02 -3.110397345970544052e+02 -2.197088083087442953e+02 -1.795948072616194509e+02
1.458384771395962254e+01 -1.643613784496455708e+02 -1.796700739272943963e+02 7.588850594719973230e+01 9.894833647514275299e+01 -1.721659829781821429e+02 -3.940323071461332916e+02 -5.913439531404972058e+02 -4.423902174340395845e+02 -3.109621116826779144e+02 -2.186589413046411323e+02 -1.785600688217030552e+02
1.695423927413544973e+01 -1.604894370285115315e+02 -1.783778897415777465e+02 7.309280492350768554e+01 9.889534697368902982e+01 -1.699524481527824378e+02 -3.949664377131903734e+02 -5.917802336398796115e+02 -4.429181691217212347e+02 -3.104923311569758084e+02 -2.182592364292198965e+02 -1.775430031586163295e+02
2.036682234402136160e+01 -1.563539811550305672e+02 -1.759686836571501090e+02 6.951213075345070536e+01 9.913760789795720996e+01 -1.665240409862705633e+02 -3.967014195323626495e+02 -5.921612871258994346e+02 -4.430017561457930242e+02 -3.096813834696477556e+02 -2.177542608565112801e+02 -1.766894893031260381e+02
2.348463531147588768e+01 -1.519745715087307190e+02 -1.733974717228820737e+02 6.548541294963533232e+01 9.968519854414961401e+01 -1.624765912805742119e+02 -3.982565908808669519e+02 -5.926013216146697005e+02 -4.429532659923809206e+02 -3.090996909130951167e+02 -2.168266958110266103e+02 -1.758323243760058290e+02
2.576960671095906008e+01 -1.472999333698518285e+02 -1.713421177709969072e+02 6.167505218547693602e+01 1.001597922642257714e+02 -1.587369790437039399e+02 -3.994262300556213745e+02 -5.932281248370426283e+02 -4.429934891733109339e+02 -3.089754566928563690e+02 -2.154836427664491225e+02 -1.743921465353748772e+02
2.809566584247417254e+01 -1.428387207009893700e+02 -1.699711080415563913e+02 5.827237921582446489e+01 1.006670160912323837e+02 -1.558460792856465673e+02 -4.011702098091155335e+02 -5.936598188240180889e+02 -4.425206887492315104e+02 -3.086099506540368225e+02 -2.140254242193994401e+02 -1.723847789515467355e+02
3.103605725274761440e+01 -1.386176747637389042e+02 -1.684531040840113008e+02 5.483017034418288915e+01 1.011624287906173834e+02 -1.530292422063446338e+02 -4.041190426839286829e+02 -5.942230239429287622e+02 -4.417412788827541590e+02 -3.075848231035676577e+02 -2.124830780261851544e+02 -1.703428800780260701e+02
3.408876106011283014e+01 -1.347466861256538664e+02 -1.669066560606680127e+02 5.137049662277302531e+01 1.016752422235463911e+02 -1.501018159370321996e+02 -4.080189299437796535e+02 -5.950699886076615712e+02 -4.411312779671770841e+02 -3.060693565013450552e+02 -2.110459390610000128e+02 -1.684843772937542496e+02
3.682382665817759460e+01 -1.307369713932063746e+02 -1.656940151152420810e+02 4.794849486951545003e+01 1.021673323263158153e+02 -1.470886734547627555e+02 -4.124085071180766704e+02 -5.964801190476789543e+02 -4.409614108825784342e+02 -3.045356263324995894e+02 -2.094883031518393182e+02 -1.662438354034612189e+02
3.966731519023846175e+01 -1.267434539702836673e+02 -1.652545573229420199e+02 4.455260780842848334e+01 1.030580748516677687e+02 -1.445642077675303199e+02 -4.175876422881588041e+02 -5.979532979646029389e+02 -4.404931967456811321e+02 -3.030144484536307345e+02 -2.076132269712172729e+02 -1.636413129068786532e+02
4.296382577154562199e+01 -1.230011713999910086e+02 -1.648531322086263060e+02 4.098452597840832823e+01 1.044345596690799738e+02 -1.424425285414559710e+02 -4.238773348510712822e+02 -5.994058427765189663e+02 -4.398363074554579271e+02 -3.016416180539887364e+02 -2.053451394618140000e+02 -1.614814209389118105e+02
4.641420535556868288e+01 -1.200509565519389099e+02 -1.643268356151670559e+02 3.752756029176462960e+01 1.063286425073249291e+02 -1.409270955486373964e+02 -4.309022318434080603e+02 -6.007374132901089752e+02 -4.395906528146230130e+02 -3.005729643615395048e+02 -2.032732521221920479e+02 -1.601228307687572112e+02
4.993112627399501235e+01 -1.172458522893877841e+02 -1.639713078375350221e+02 3.410922652739584748e+01 1.086320957758398293e+02 -1.396997546351443589e+02 -4.376533024386635020e+02 -6.025202984226564240e+02 -4.402125309416259142e+02 -2.998156919971734169e+02 -2.016042811591051702e+02 -1.584907952204146682e+02
5.410569829791108276e+01 -1.140008262384142057e+02 -1.647360891384657862e+02 3.036766192204155601e+01 1.115286905944219740e+02 -1.387555146610759209e+02 -4.436911952784648747e+02 -6.048104005538012871e+02 -4.408046015203458978e+02 -2.988968184055046322e+02 -2.001917949893925766e+02 -1.559687705644792572e+02
5.923625800535497632e+01 -1.100730253941560903e+02 -1.664448532077849734e+02 2.593991344253313969e+01 1.147417018565439832e+02 -1.377736404982444753e+02 -4.492548040874418120e+02 -6.077016006628331297e+02 -4.410447919463470612e+02 -2.977258060611615633e+02 -1.986251401944808208e+02 -1.535333361013839237e+02
6.473636854781433669e+01 -1.064491971175577589e+02 -1.688500261409511722e+02 2.139430087613023801e+01 1.181084178049563604e+02 -1.371744674471042913e+02 -4.547643299155204772e+02 -6.106472128399576604e+02 -4.413014644266013988e+02 -2.966062688917294281e+02 -1.971059712102247659e+02 -1.524107197505314275e+02
7.006421915066850659e+01 -1.034244586943761277e+02 -1.715763042778930867e+02 1.717344520542429720e+01 1.218016389328010973e+02 -1.369926418974360445e+02 -4.600170002542896555e+02 -6.136043527562793543e+02 -4.422401036700300665e+02 -2.958852826288230631e+02 -1.957339052866811926e+02 -1.518480966523447933e+02
7.540294216789671111e+01 -1.009538241172731290e+02 -1.749514003238556086e+02 1.326797545019206659e+01 1.265036386809980229e+02 -1.374246456399870908e+02 -4.646599289983947187e+02 -6.164448289245095793e+02 -4.432712896131644129e+02 -2.953560478158464662e+02 -1.946522860322657777e+02 -1.505263167976496845e+02
8.099035399950643921e+01 -9.859316910198317885e+01 -1.786486949875964001e+02 9.298817975250333490e+00 1.319687316302241413e+02 -1.381368574884056670e+02 -4.686838216683625546e+02 -6.195892362287763717e+02 -4.441693881578055993e+02 -2.949453433423984734e+02 -1.939000698163555967e+02 -1.487129474204499786e+02
8.652088390217811309e+01 -9.686552458657776299e+01 -1.825943826660159459e+02 5.635756087251059476e+00 1.372556119689397747e+02 -1.394442698615361849e+02 -4.728320884188367472e+02 -6.229225172293679407e+02 -4.452923231102067234e+02 -2.947942938563531925e+02 -1.938046460613368538e+02 -1.479015230897214792e+02
9.176954671035873901e+01 -9.588979902457930393e+01 -1.865968892645094570e+02 2.577396070196025679e+00 1.415862047244597193e+02 -1.412978501891493863e+02 -4.778015676275463193e+02 -6.265730992426970261e+02 -4.473744254000677074e+02 -2.950623778443847414e+02 -1.940216954621928380e+02 -1.480179685246873760e+02
9.685750570960652794e+01 -9.574957039478911724e+01 -1.910226323571050386e+02 7.312986032137663850e-02 1.454767760748067360e+02 -1.437747051938552545e+02 -4.836832915626939666e+02 -6.303519652930189068e+02 -4.498481431379673836e+02 -2.954849097672888547e+02 -1.940882076928750450e+02 -1.477633198166840600e+02
1.015212718311680078e+02 -9.604540590070394046e+01 -1.955321801247867484e+02 -2.284340161314154294e+00 1.494975536553437223e+02 -1.462840621417894624e+02 -4.897150240758037967e+02 -6.345499417753882199e+02 -4.523160071287087476e+02 -2.961018113887276968e+02 -1.940014760691553306e+02 -1.469017863744787178e+02
1.049644097366771263e+02 -9.696721700007105937e+01 -2.000581081504585370e+02 -4.121596305671015870e+00 1.536411891355251669e+02 -1.488133946284429499e+02 -4.952990794617837764e+02 -6.389257973907754149e+02 -4.549342673495726217e+02 -2.972715338502777627e+02 -1.946707193915151777e+02 -1.468854996511889510e+02
1.071905672081442162e+02 -9.808669869178118006e+01 -2.043933995673529296e+02 -5.056163681237826779e+00 1.573180093493952825e+02 -1.512111190540722987e+02 -5.004923281736355420e+02 -6.434499576604255253e+02 -4.583731023482960154e+02 -2.992126033346435179e+02 -1.961444077567027762e+02 -1.481415050967941340e+02
1.093655223348918497e+02 -9.917144529660775731e+01 -2.086706870904684479e+02 -5.116678481929932687e+00 1.604858616625212449e+02 -1.537621540131671622e+02 -5.058656684378963178e+02 -6.478269879039121406e+02 -4.620071333340909518e+02 -3.013436439367641242e+02 -1.975068429796414478e+02 -1.494771334703011121e+02
1.122073721325503044e+02 -1.000462144272418641e+02 -2.121908888575692913e+02 -5.005590914539551406e+00 1.631608576079117370e+02 -1.561350498920497785e+02 -5.113677240034224383e+02 -6.523346977018387634e+02 -4.652213097084274978e+02 -3.031124581949159733e+02 -1.980092044753035339e+02 -1.500182332145466546e+02
1.147876462066212753e+02 -1.013940865687094686e+02 -2.148404192068535679e+02 -4.949966341238363654e+00 1.653548775770264569e+02 -1.583070337829752532e+02 -5.163299504669713542e+02 -6.567872331163595163e+02 -4.680090634067226461e+02 -3.045252271308214631e+02 -1.985655763462144137e+02 -1.506598713475482896e+02
1.160276258117124826e+02 -1.030496595983888568e+02 -2.170823656285586196e+02 -5.014670649865896834e+00 1.670605909971268943e+02 -1.600483650200141597e+02 -5.201350576914784369e+02 -6.612059431635501596e+02 -4.711597658896318990e+02 -3.060780459817241876e+02 -2.000739837097591192e+02 -1.520639022473852719e+02
1.163720429461631340e+02 -1.046588115076748124e+02 -2.199625279572693444e+02 -5.053230360846990621e+00 1.688809431784280832e+02 -1.618822815312422279e+02 -5.231363015457708343e+02 -6.654630858977029675e+02 -4.743266513085613383e+02 -3.079237309389516781e+02 -2.022365089968839698e+02 -1.536846476228566871e+02
1.170167230597658801e+02 -1.060016025422103638e+02 -2.230241597846342358e+02 -5.007752296016209748e+00 1.710259476848498821e+02 -1.640150545030830926e+02 -5.260434055904246406e+02 -6.700997551825014398e+02 -4.770590704119848624e+02 -3.100412652921560834e+02 -2.040143572566719286e+02 -1.550156880565143069e+02
1.179237657757173707e+02 -1.080504565561923584e+02 -2.254417746295047777e+02 -4.371494830448755309e+00 1.730074060228137682e+02 -1.666062266077323955e+02 -5.291519661656842572e+02 -6.750385260766728379e+02 -4.795464262320556941e+02 -3.123714107467880581e+02 -2.056637680569818372e+02 -1.569377440063707070e+02
1.180082464735438208e+02 -1.109440702938096308e+02 -2.269629505745269284e+02 -3.029024724156830217e+00 1.739857622061678626e+02 -1.689542957647425965e+02 -5.319685764880030092e+02 -6.799726907819602957e+02 -4.829773634307761085e+02 -3.149770518737019529e+02 -2.079606577413474326e+02 -1.599577678858451293e+02
1.168117567927099287e+02 -1.141232275053163363e+02 -2.287313004572050943e+02 -1.171249565610833709e+00 1.741105024166412818e+02 -1.709589169411141256e+02 -5.341422002588134319e+02 -6.843662371515356426e+02 -4.873290384871040146e+02 -3.177743419620167060e+02 -2.109660947642029214e+02 -1.632332648383215030e+02
1.150654469712826682e+02 -1.168761129982740954e+02 -2.308980535747508327e+02 9.033951254178974599e-01 1.739920027050456213e+02 -1.728940881252955251e+02 -5.359263808928843673e+02 -6.888453859794965410e+02 -4.918591685547041834e+02 -3.208818373764100329e+02 -2.138848517561311553e+02 -1.658991458111594852e+02
1.134904325419867916e+02 -1.199495503082689254e+02 -2.327985886325552656e+02 3.556142972586898487e+00 1.740319066784938400e+02 -1.755843221675860946e+02 -5.380574034440039668e+02 -6.939484143662718907e+02 -4.960503858122827410e+02 -3.244904830307897328e+02 -2.168966276156578772e+02 -1.687726073262490729e+02
1.120942859470455204e+02 -1.237184412035987293e+02 -2.339116085986108260e+02 6.775044588755076092e+00 1.739962828913116368e+02 -1.787694183839670643e+02 -5.408046272529500129e+02 -6.996624400144248739e+02 -5.006971298310129441e+02 -3.287192736448290589e+02 -2.207125282594191447e+02 -1.727134643710012654e+02
1.104533882115677983e+02 -1.278475296230947720e+02 -2.353707952419580067e+02 1.003097459152235515e+01 1.739336124276077555e+02 -1.819625180132999276e+02 -5.438594173420789275e+02 -7.049359378348367500e+02 -5.060226756909993355e+02 -3.334007977818658333e+02 -2.253241353663232474e+02 -1.770894631335739007e+02
1.082361402641848258e+02 -1.316368385677668584e+02 -2.377360427051696945e+02 1.275713394380522381e+01 1.739775984384219498e+02 -1.847322092399117821e+02 -5.467448323750498957e+02 -7.096141978919786197e+02 -5.115431854543911641e+02 -3.385225493670106971e+02 -2.296358674259589350e+02 -1.807051188628994964e+02
1.053671155499369405e+02 -1.357333593657499478e+02 -2.403109186947625631e+02 1.546098906467006984e+01 1.741412090445680576e+02 -1.876027188776572245e+02 -5.495572061716688950e+02 -7.142122426370675612e+02 -5.165421269660135977e+02 -3.439955947976075095e+02 -2.334284841774842505e+02 -1.839019965940173620e+02
1.023298534103398367e+02 -1.404156803446183233e+02 -2.418558220599218487e+02 1.859950312955198726e+01 1.740283450411905051e+02 -1.906199528992999319e+02 -5.526175816008443462e+02 -7.193964076558107763e+02 -5.214356941026065897e+02 -3.494086853742027756e+02 -2.374692866989683750e+02 -1.875414130429328736e+02
9.988353893444610776e+01 -1.450178300380177632e+02 -2.429514225205819002e+02 2.188641913625528801e+01 1.736002362567610078e+02 -1.936820411558706496e+02 -5.558764726394442732e+02 -7.246018717718266089e+02 -5.264725922133882250e+02 -3.541752020371629328e+02 -2.421621746005849900e+02 -1.912437038344320115e+02
9.821497441408600082e+01 -1.485326247082551561e+02 -2.446542124775736511e+02 2.463122657475692279e+01 1.730548359110834440e+02 -1.965537533539165622e+02 -5.586684984128098677e+02 -7.293786722592752767e+02 -5.313782195727618500e+02 -3.584109433537837504e+02 -2.464704785223827628e+02 -1.937507540681780256e+02
9.659123275266887276e+01 -1.518460068042939213e+02 -2.471954241374726280e+02 2.721794546824136063e+01 1.727797900018602775e+02 -1.997665029039762032e+02 -5.605688283056830414e+02 -7.337409099905844414e+02 -5.353558076112614117e+02 -3.625598686357297993e+02 -2.495457118173472963e+02 -1.951510110444884560e+02
9.441734547705043212e+01 -1.561337663136806100e+02 -2.496050790033546889e+02 3.037427592693564193e+01 1.729185237494715466e+02 -2.033503149812633239e+02 -5.618102847996489118e+02 -7.382512903288571806e+02 -5.385256197394392075e+02 -3.664388614673130746e+02 -2.516604167434378496e+02 -1.966599778388720665e+02
9.192549036223375936e+01 -1.613296525400087660e+02 -2.518585817701978158e+02 3.422464856410699952e+01 1.735025460065468508e+02 -2.070317845933393812e+02 -5.628975826771882112e+02 -7.425833156505339048e+02 -5.413663294328564461e+02 -3.691769879773070215e+02 -2.536563434187406472e+02 -1.989273921918149028e+02
8.948911763215809856e+01 -1.661137239245522323e+02 -2.544190330309438650e+02 3.820267306223270509e+01 1.739763004919027765e+02 -2.103466116162875323e+02 -5.638472876071571136e+02 -7.463556817631937292e+02 -5.444057177369456895e+02 -3.707462008155306989e+02 -2.556238968117715444e+02 -2.014872490902334334e+02
8.684168715391501792e+01 -1.705825857796379523e+02 -2.573294898198165583e+02 4.235915225110928617e+01 1.736459553814081289e+02 -2.136788272926764307e+02 -5.644717276314415813e+02 -7.496015323534480785e+02 -5.474591686340212391e+02 -3.722283200861442083e+02 -2.574729928529862377e+02 -2.041632644766180533e+02
8.373268910267822207e+01 -1.756954893098775301e+02 -2.596023700896143396e+02 4.692946548985745636e+01 1.723366665674357421e+02 -2.171818790200768206e+02 -5.648936477883917178e+02 -7.531534907168762629e+02 -5.503930597485940552e+02 -3.744409310698352442e+02 -2.594713654350804291e+02 -2.072427482685295388e+02
8.043649634846745755e+01 -1.817263385588427127e+02 -2.611149023367344171e+02 5.165416890779937376e+01 1.709343423688559085e+02 -2.207644641885349301e+02 -5.654291516397574924e+02 -7.571223925095113145e+02 -5.531314866295423371e+02 -3.769576354472433763e+02 -2.620891767950644180e+02 -2.107101285245336442e+02
7.697270239347014353e+01 -1.875968437179457453e+02 -2.625457439768375139e+02 5.595622434317547800e+01 1.701196290597313237e+02 -2.241307971232832017e+02 -5.659296506624756375e+02 -7.610963533708977593e+02 -5.561662952123361947e+02 -3.793716813108243286e+02 -2.651861852402197997e+02 -2.141426659022980630e+02
7.264240895905520290e+01 -1.931621583163405091e+02 -2.645027576519449894e+02 6.027660371226068747e+01 1.695753758677647625e+02 -2.277432644850350414e+02 -5.660351014050389722e+02 -7.645918528796560167e+02 -5.597924774192530322e+02 -3.821776049009448570e+02 -2.684806344377013261e+02 -2.176976355626574104e+02
6.742105240403603261e+01 -1.991738627227430527e+02 -2.664830044600263363e+02 6.541590937461062083e+01 1.684321820491468316e+02 -2.318074911990499345e+02 -5.659540329666734806e+02 -7.680226680399101724e+02 -5.638999885335317686e+02 -3.858796428868291741e+02 -2.719670487717187370e+02 -2.217883946146475012e+02
6.275246180068948831e+01 -2.059048550730834393e+02 -2.682875988006677517e+02 7.122720850264875025e+01 1.667590882916631756e+02 -2.360542803348783707e+02 -5.664089979407065130e+02 -7.717335987768428822e+02 -5.677073394382467768e+02 -3.899420978045488368e+02 -2.758305666476058491e+02 -2.261392248977938948e+02
5.971836883475141633e+01 -2.122519073289087146e+02 -2.702721341828816435e+02 7.656359503674208611e+01 1.652995222161123650e+02 -2.398867019253847843e+02 -5.675902224807674656e+02 -7.757828723792997607e+02 -5.710296554709890415e+02 -3.938236528610247547e+02 -2.798239676079765559e+02 -2.299685760398880632e+02
5.720627355287602711e+01 -2.177661327520286534e+02 -2.728041286425620910e+02 8.107927063301599446e+01 1.645213723258585219e+02 -2.435736832189461438e+02 -5.688540734220927106e+02 -7.797852206798746693e+02 -5.744221096096745214e+02 -3.978899276443911504e+02 -2.835744843793227687e+02 -2.332907152054314679e+02
5.349543612831792672e+01 -2.231171062294549472e+02 -2.752782225330405481e+02 8.546156404328763756e+01 1.641079305519826903e+02 -2.475670482435792792e+02 -5.697397921061763100e+02 -7.837278868170216128e+02 -5.785484001922955031e+02 -4.024895908090426246e+02 -2.869453676577980445e+02 -2.367708032367305293e+02
4.890949565569429325e+01 -2.289790328728703912e+02 -2.773065664120271663e+02 9.026348817815181746e+01 1.637619349533956097e+02 -2.519956312285332274e+02 -5.706600359694486997e+02 -7.876086182081446623e+02 -5.829221018498374178e+02 -4.068081135984959928e+02 -2.900829739554934008e+02 -2.405178033015106109e+02
4.509128340903751564e+01 -2.349179067499637199e+02 -2.792097514279358279e+02 9.522591946551432329e+01 1.632598319833195433e+02 -2.564312311016155945e+02 -5.722562479950264560e+02 -7.915738018153631401e+02 -5.867919401687637446e+02 -4.100445117825155421e+02 -2.930139355876343075e+02 -2.439263356183813016e+02
4.205698361573232091e+01 -2.408034489910099012e+02 -2.815797572740594319e+02 1.002787993523559038e+02 1.623231795308043957e+02 -2.608322043817397571e+02 -5.745004366877864186e+02 -7.956771578721841252e+02 -5.901200312670094945e+02 -4.127298524441797554e+02 -2.956959874012954970e+02 -2.468410140447933543e+02
3.803269890911956708e+01 -2.472573427009409954e+02 -2.841037399711983653e+02 1.057597620095788642e+02 1.607112615987311131e+02 -2.652728855139428674e+02 -5.770098193691800361e+02 -8.001831626956634409e+02 -5.935996906661587218e+02 -4.157777921072480467e+02 -2.981186985526584863e+02 -2.497832228353175026e+02
3.229612095814919570e+01 -2.546468029737415293e+02 -2.863001000097415840e+02 1.116986446241541131e+02 1.588812762918620365e+02 -2.697737905459491117e+02 -5.796754027924170032e+02 -8.050265131368958009e+02 -5.972714859731370325e+02 -4.188378228377137589e+02 -3.004128166981856225e+02 -2.530598779096971498e+02
2.621904541206376749e+01 -2.621215054182792414e+02 -2.881924775886816974e+02 1.176211551101500703e+02 1.574381465593159817e+02 -2.741833463298754623e+02 -5.826790180943683026e+02 -8.100015029228785579e+02 -6.007068283120025853e+02 -4.211746699886127772e+02 -3.028618873700899599e+02 -2.565318161744593226e+02
2.112643557691414387e+01 -2.689429209370824765e+02 -2.902205320985042931e+02 1.234536444465189362e+02 1.564293687795347410e+02 -2.786579049353564415e+02 -5.859815133676764844e+02 -8.148758870656673707e+02 -6.038673674215194751e+02 -4.233230513980507794e+02 -3.058384050754202121e+02 -2.602179493870340821e+02
1.680134763316120683e+01 -2.752820443745578700e+02 -2.922287971040752836e+02 1.294299334852078118e+02 1.554273039715403115e+02 -2.831392839328973423e+02 -5.894606469562505708e+02 -8.198158692193311481e+02 -6.073404931467489405e+02 -4.263876816315016072e+02 -3.093876646925696150e+02 -2.642359716406980397e+02
1.274228126257724369e+01 -2.814370431328580935e+02 -2.938701182854002241e+02 1.351098729481991541e+02 1.545292937863761438e+02 -2.872246112356476715e+02 -5.930108271134153028e+02 -8.248545816172616014e+02 -6.112302424168748303e+02 -4.301303362985417493e+02 -3.130433462829166729e+02 -2.681771573808230187e+02
9.273214253834714427e+00 -2.868847537932873024e+02 -2.952653845032361346e+02 1.395005675985628102e+02 1.540780719985235692e+02 -2.905921863258922713e+02 -5.965008739596948999e+02 -8.298220532477461120e+02 -6.151851309568845636e+02 -4.335459644423274312e+02 -3.164467331128782916e+02 -2.715678033322278111e+02
6.751233624501681518e+00 -2.911457228866143510e+02 -2.969843527026293373e+02 1.424513895215689843e+02 1.538887283248520532e+02 -2.936168001223399528e+02 -5.996409875893142498e+02 -8.344451963341824694e+02 -6.191865549867577556e+02 -4.367862175011870249e+02 -3.199091719247614378e+02 -2.747019262090634015e+02
4.822666518822575910e+00 -2.945183925123935751e+02 -2.990330954469742437e+02 1.448429086238378716e+02 1.533589621579738491e+02 -2.966213863820608481e+02 -6.025512781765197587e+02 -8.388556027007696230e+02 -6.236605287133910451e+02 -4.407903832719507022e+02 -3.239092689780975434e+02 -2.782049976613089939e+02
3.251546818287646801e+00 -2.974516722035065186e+02 -3.008979779488648774e+02 1.471777911158714858e+02 1.526874602806919086e+02 -2.992734194752378585e+02 -6.055821908290674855e+02 -8.432712539977528650e+02 -6.284466432233573414e+02 -4.452844482464054181e+02 -3.281660833880156929e+02 -2.817975163675807835e+02
2.278214609138986102e+00 -2.999116656879246534e+02 -3.023225508081156363e+02 1.491585660287589405e+02 1.526653175818808279e+02 -3.011816718494508223e+02 -6.086645714939436402e+02 -8.477491154190610132e+02 -6.328941535492946286e+02 -4.491890117328242695e+02 -3.320941796032010416e+02 -2.847533530976328393e+02
1.753565777911961554e+00 -3.020038329244069928e+02 -3.036735436132980794e+02 1.507777306460396289e+02 1.534097479626338725e+02 -3.028047903115979693e+02 -6.109942275414351798e+02 -8.520502091602072596e+02 -6.369727751055837643e+02 -4.528298502656759865e+02 -3.358550308083200662e+02 -2.871228200048134909e+02
8.309008236668246061e-01 -3.044061298489999103e+02 -3.051947159689959790e+02 1.527150227434425176e+02 1.539945968485282037e+02 -3.048002063201287797e+02 -6.123723517856744820e+02 -8.560124450259348805e+02 -6.413811784190141907e+02 -4.577088403912457011e+02 -3.402671951749034065e+02 -2.896029583635047970e+02
-8.384400651371690660e-01 -3.074860544507984059e+02 -3.066002900172587715e+02 1.551530816691901293e+02 1.538489361244470217e+02 -3.069827419887598694e+02 -6.136548125513043033e+02 -8.596162587036196783e+02 -6.462479526190467141e+02 -4.639357413946756310e+02 -3.454005038109290240e+02 -2.921139501278210560e+02
-2.822972765689633068e+00 -3.109511505093387882e+02 -3.075762703920698868e+02 1.576222020196476024e+02 1.533112069987837458e+02 -3.089023593411928346e+02 -6.156938457309114483e+02 -8.630459692127556082e+02 -6.507834151867416494e+02 -4.699764604574531859e+02 -3.504436866309473544e+02 -2.940963547149571014e+02
-4.989761799971347500e+00 -3.146524301493094526e+02 -3.083288178625438150e+02 1.601447841401411551e+02 1.527377595613594110e+02 -3.109759072569989939e+02 -6.179016698968439414e+02 -8.665100343716134148e+02 -6.545443853371832574e+02 -4.752049685086501540e+02 -3.548052292725410553e+02 -2.957003291033011010e+02
-7.893017751547391825e+00 -3.190550811119184687e+02 -3.092955841093923368e+02 1.635255647893933997e+02 1.518112436364943107e+02 -3.139510516391888473e+02 -6.194086692211182026e+02 -8.700268457632633954e+02 -6.579576786831589743e+02 -4.805730451977223083e+02 -3.587617555069169839e+02 -2.976836734223847429e+02
-1.149968325976111672e+01 -3.240346488523240396e+02 -3.104920060075829156e+02 1.677639076673775378e+02 1.503757309821238550e+02 -3.173378512064759320e+02 -6.204168589784336518e+02 -8.732284689399880335e+02 -6.613694363282767199e+02 -4.862845972619155077e+02 -3.624413596279945295e+02 -2.998350123179246225e+02
-1.502051652083432209e+01 -3.286426762286594112e+02 -3.115515799427389538e+02 1.718431101783261568e+02 1.488469835864759716e+02 -3.199286005147480410e+02 -6.218907299119255185e+02 -8.757420095158711320e+02 -6.644130837409411470e+02 -4.909742575430010447e+02 -3.655100660671440664e+02 -3.013717095789517657e+02
-1.819964641559289475e+01 -3.322960282483782635e+02 -3.122005122017520762e+02 1.752354072695759726e+02 1.474943656860444889e+02 -3.215783199944997932e+02 -6.236244046785492401e+02 -8.777195806679088719e+02 -6.668719604287426819e+02 -4.939944131905308495e+02 -3.677985455032361983e+02 -3.023859144295609553e+02
-2.165313519593106761e+01 -3.356861923170779392e+02 -3.126458721653243060e+02 1.786475151824165550e+02 1.460173783695194629e+02 -3.234368640654238334e+02 -6.247221389152333586e+02 -8.796715880563714336e+02 -6.689139626044700435e+02 -4.964037541051370113e+02 -3.697885262934632351e+02 -3.038333276025652481e+02
-2.517020800137572323e+01 -3.392603421619713231e+02 -3.132505747745322537e+02 1.822307805508825140e+02 1.445112596337056914e+02 -3.258911724347352106e+02 -6.251301605937883323e+02 -8.816961053374958510e+02 -6.704510119730472297e+02 -4.987926938607459988e+02 -3.715884233364062084e+02 -3.055902443827259845e+02
-2.746277114397715380e+01 -3.424582402905691083e+02 -3.142258076585782192e+02 1.849907938481208021e+02 1.437948658632313368e+02 -3.280780503865057653e+02 -6.259935265974783078e+02 -8.832991680034929232e+02 -6.710171470463468495e+02 -5.000982665556583697e+02 -3.727502657454955965e+02 -3.067057646610552979e+02
-2.807433776243158263e+01 -3.445771943691585761e+02 -3.153735026247517794e+02 1.863060844514560586e+02 1.442345299526945439e+02 -3.293176002805168991e+02 -6.275176737809954375e+02 -8.842660942452224617e+02 -6.709909284960953073e+02 -4.997650854800286879e+02 -3.730094473357865468e+02 -3.071263853219734301e+02
-2.835669161889495271e+01 -3.460614499712033307e+02 -3.164298209815870564e+02 1.871668590505256304e+02 1.449279022116608644e+02 -3.302314736446156189e+02 -6.287367073515270022e+02 -8.851207897905417212e+02 -6.713504644857562198e+02 -4.990667326721971335e+02 -3.729631626908384305e+02 -3.079925355943038880e+02
-2.936984045427398726e+01 -3.473758635400836283e+02 -3.171996642594557443e+02 1.884000121780971995e+02 1.449063317333613270e+02 -3.313514698134554237e+02 -6.290204538548084656e+02 -8.864519345712658378e+02 -6.722956883683411888e+02 -4.990393616347425905e+02 -3.730305651355661780e+02 -3.094385517456946673e+02
-3.054249692620586387e+01 -3.484477641743439449e+02 -3.177498851751994948e+02 1.895738629087833544e+02 1.443436578487356314e+02 -3.324439462015608910e+02 -6.293195229267507784e+02 -8.880319503584540826e+02 -6.728978664413368733e+02 -4.988247679187501262e+02 -3.730960500566193332e+02 -3.105531089658702513e+02
-3.111074224786279530e+01 -3.492144404225602443e+02 -3.180557187711559664e+02 1.901024445541766852e+02 1.439061227860875078e+02 -3.331832622547755136e+02 -6.303340847889181759e+02 -8.892981618789285676e+02 -6.730502812407063402e+02 -4.975894842252963599e+02 -3.729506332223656386e+02 -3.111824478870462940e+02
-3.179689573537309499e+01 -3.505021776686949693e+02 -3.181168500297786750e+02 1.908007428781960186e+02 1.435299653840386895e+02 -3.340787389797169453e+02 -6.315473219799941944e+02 -8.902115589510256086e+02 -6.737542537395069076e+02 -4.962833971140657354e+02 -3.729166578478002521e+02 -3.124708054365459589e+02
-3.352603482342728114e+01 -3.525358937895163081e+02 -3.179493935697793177e+02 1.925189274968659561e+02 1.427727200710817783e+02 -3.353124489699931132e+02 -6.320593378163073339e+02 -8.913117453812458280e+02 -6.754760805566937734e+02 -4.960288259270631102e+02 -3.730230268176372306e+02 -3.145098886327652394e+02
-3.602151962461458368e+01 -3.546500340853632451e+02 -3.178827783137597862e+02 1.950099801975064508e+02 1.417460249396861514e+02 -3.364435634458002369e+02 -6.323545633408865569e+02 -8.927901802237977336e+02 -6.771456609664910502e+02 -4.962083256902598123e+02 -3.730480942285197443e+02 -3.161882002796241977e+02
-3.855386696534507251e+01 -3.563726448133315330e+02 -3.180494640685720924e+02 1.975591137573991602e+02 1.407935606661654901e+02 -3.371329506805966503e+02 -6.332693709592276718e+02 -8.943134519093856625e+02 -6.782136677367524271e+02 -4.958953660272563866e+02 -3.730097818046163525e+02 -3.172322205224499498e+02
-4.133625324340980711e+01 -3.585930299422301459e+02 -3.182492001963847201e+02 2.003891859429982105e+02 1.395975895365065185e+02 -3.380101690894708213e+02 -6.348529969316606412e+02 -8.954388855408286645e+02 -6.794393901693456428e+02 -4.956155610922523920e+02 -3.734229116528160262e+02 -3.189500051754340575e+02
-4.467289274437953139e+01 -3.615997826711558787e+02 -3.178517850915584972e+02 2.036354681781456009e+02 1.375189971291748918e+02 -3.392302559269121502e+02 -6.362085295423313482e+02 -8.960922284776499964e+02 -6.814106832491211208e+02 -4.961565803270783022e+02 -3.741261472920706979e+02 -3.214851063615863040e+02
-4.817158902188496228e+01 -3.644360102591876398e+02 -3.166022761972084822e+02 2.067836150100644090e+02 1.346005185468033005e+02 -3.400866195632586368e+02 -6.369495126646703511e+02 -8.962616691895813119e+02 -6.831658245052576603e+02 -4.968707709846729585e+02 -3.746345961769834503e+02 -3.233845590448024154e+02
-5.158511884989916751e+01 -3.662481837370765447e+02 -3.146369180078531826e+02 2.094188325673833617e+02 1.314938317545158100e+02 -3.399075055486960650e+02 -6.369339094590042123e+02 -8.958969459222984142e+02 -6.841314645146845805e+02 -4.969931901523968349e+02 -3.751139205428828518e+02 -3.240860473970516864e+02
-5.567356104194256972e+01 -3.680030698881304829e+02 -3.123419011921012043e+02 2.122220915156482022e+02 1.285594668205330322e+02 -3.393466970012114530e+02 -6.359804482885560901e+02 -8.947698778273226026e+02 -6.849864322774351422e+02 -4.971795820545696074e+02 -3.764366229423984009e+02 -3.251944942888308105e+02
-6.073633947373338060e+01 -3.703302435672508182e+02 -3.095638805870245278e+02 2.154525497085086840e+02 1.255595695216483563e+02 -3.389402841901941201e+02 -6.335551810060226217e+02 -8.926310759593479816e+02 -6.861481137717660204e+02 -4.981693037827043895e+02 -3.782194882571022276e+02 -3.273012534266034663e+02
-6.587227758418356416e+01 -3.723538433335850186e+02 -3.059904354511327256e+02 2.185423213875552904e+02 1.220191035021977370e+02 -3.383321002598107725e+02 -6.294494661008518506e+02 -8.891811281658739290e+02 -6.863071585694571013e+02 -4.990829032462041255e+02 -3.791469978225504747e+02 -3.288649869819490164e+02
-7.052518655062831954e+01 -3.730130788047830492e+02 -3.014383845147731904e+02 2.213255303702086962e+02 1.174096558084093402e+02 -3.367670684795938314e+02 -6.231484871608162166e+02 -8.843957286090609387e+02 -6.847737738148931612e+02 -4.989393131754316641e+02 -3.789596239487553362e+02 -3.289767627536102736e+02
-7.581435070998426795e+01 -3.732936705066658760e+02 -2.962669348950024641e+02 2.249214846924259916e+02 1.114111513821632684e+02 -3.345062679914224759e+02 -6.140606213857361126e+02 -8.782154961192288738e+02 -6.826535970493669083e+02 -4.983335132100999658e+02 -3.791355073204322252e+02 -3.294147521717061977e+02
-8.263720967281288665e+01 -3.740631893101625565e+02 -2.904523190459181023e+02 2.293755661010448534e+02 1.043694483807909847e+02 -3.317207709415596923e+02 -6.018138280621933518e+02 -8.702183072081398905e+02 -6.808334394858567293e+02 -4.979616207568521418e+02 -3.800736518886502040e+02 -3.311607203621347253e+02
-9.018802720453588506e+01 -3.744108016154287384e+02 -2.834325267997424476e+02 2.330723705914191157e+02 9.706208380132599700e+01 -3.279695714476786748e+02 -5.867999688306455255e+02 -8.595987460079521725e+02 -6.776724209463192210e+02 -4.967817341000622378e+02 -3.803292136722639611e+02 -3.322808454773024209e+02
-9.742671266106290773e+01 -3.728423933056897681e+02 -2.743890954268972564e+02 2.350885472007340127e+02 8.952510474976548949e+01 -3.226282278964751526e+02 -5.688119740904155606e+02 -8.461191774383866004e+02 -6.715600204866917693e+02 -4.937789289945042128e+02 -3.788718921685394889e+02 -3.308486478849949322e+02
-1.049238671591644163e+02 -3.700284654544439604e+02 -2.635119230465909368e+02 2.370668509639103831e+02 8.086386501181057440e+01 -3.161325506518991233e+02 -5.470418429524041812e+02 -8.300634107167578577e+02 -6.631344081098607148e+02 -4.898389088937437350e+02 -3.768417851204147837e+02 -3.284092792549414526e+02
-1.132841177483472990e+02 -3.668722465757454074e+02 -2.515828536354395908e+02 2.400992382385914254e+02 7.063810986945512127e+01 -3.087229776535724568e+02 -5.210610568457921090e+02 -8.113231699992300037e+02 -6.536697889084741746e+02 -4.858579298013652306e+02 -3.749200703338910898e+02 -3.269570825607411848e+02
-1.216257181502238467e+02 -3.626068223360898628e+02 -2.391838651708282839e+02 2.426655610691798870e+02 5.970052403159625243e+01 -3.000664809122999941e+02 -4.920084289430117224e+02 -7.888117567222375328e+02 -6.420729774994809986e+02 -4.804129511903028629e+02 -3.719276132195999480e+02 -3.255207033681552957e+02
-1.290458250143399823e+02 -3.559331716483989112e+02 -2.258939342865519961e+02 2.429868241430669968e+02 4.892490470701597616e+01 -2.899142524476609992e+02 -4.607649909381892144e+02 -7.618025306718318461e+02 -6.268924875416771556e+02 -4.719337651347544238e+02 -3.669532007902438409e+02 -3.219593631695528302e+02
-1.363288708362842669e+02 -3.479943066441867927e+02 -2.114699563112009173e+02 2.422521654066338783e+02 3.816841482564466048e+01 -2.792061344738911544e+02 -4.269386309928817127e+02 -7.306338774332818957e+02 -6.086708494833809482e+02 -4.613865100624414595e+02 -3.614287244873045779e+02 -3.169672444663004853e+02
-1.438555966988191699e+02 -3.401416283136362608e+02 -1.962893267932897459e+02 2.419943685152729529e+02 2.721188455251943950e+01 -2.682113552645740242e+02 -3.897487576131210858e+02 -6.957309022705704820e+02 -5.884347385658385292e+02 -4.502317611335637366e+02 -3.561047954153761452e+02 -3.120876846472452826e+02
-1.498900961972078960e+02 -3.313729779443894472e+02 -1.810906364629874474e+02 2.410511552614435118e+02 1.678254932669534938e+01 -2.559691195227292155e+02 -3.501951598966066399e+02 -6.564015262395784021e+02 -5.646032335523134407e+02 -4.371285433118995343e+02 -3.489113507368967362e+02 -3.063316621297481106e+02
-1.529165576967162394e+02 -3.196018945685549966e+02 -1.657119017260829139e+02 2.372378795307950270e+02 7.413185103923408903e+00 -2.416815892163452020e+02 -3.098558977556557466e+02 -6.121567304362125697e+02 -5.354756192050085701e+02 -4.199011548912584999e+02 -3.376064154342448091e+02 -2.974782900330615121e+02
-1.541947070826722381e+02 -3.054621519911762562e+02 -1.497415449181869178e+02 2.310653187992302549e+02 -1.516225309197172244e+00 -2.265027538182357887e+02 -2.692714864105492438e+02 -5.639260939611101549e+02 -5.022129931818635669e+02 -3.990038977041259614e+02 -3.232378024913041372e+02 -2.859801533322890350e+02
-1.549907038234898096e+02 -2.901647652675456470e+02 -1.331951630813600502e+02 2.236085217230443902e+02 -1.038645929441241478e+01 -2.111370223299278166e+02 -2.280045149046514439e+02 -5.128408319909768807e+02 -4.667072149838961082e+02 -3.758022630547712879e+02 -3.072446153643824687e+02 -2.730150992508793593e+02
