1,2,3,4,5,6,7,8,9,10,11,12
100,147,49,26,-122,97,-3,18,43,50,54,43
96,143,49,24,-117,96,0,17,43,50,52,40
94,147,54,21,-118,100,-4,14,40,50,51,39
90,153,64,14,-119,108,-8,12,39,49,52,41
87,163,79,5,-122,120,-10,12,38,47,52,45
81,173,93,-5,-125,133,-15,12,40,51,57,51
73,180,109,-16,-124,144,-19,9,44,61,64,58
69,182,114,-21,-124,148,-26,6,41,62,66,59
63,176,114,-25,-118,145,-36,-3,35,60,67,58
58,174,116,-28,-114,145,-41,-7,34,58,67,58
56,175,120,-31,-114,147,-43,-11,35,56,67,60
62,181,119,-28,-120,150,-48,-14,33,58,69,63
77,192,116,-18,-133,154,-53,-16,30,65,70,66
93,199,108,-6,-145,153,-60,-22,28,64,70,66
111,204,94,10,-156,148,-68,-27,26,58,69,65
133,207,76,30,-168,140,-73,-32,21,53,64,60
153,205,53,51,-178,129,-75,-36,14,46,58,53
161,206,46,58,-181,125,-72,-37,14,43,52,51
159,204,47,58,-180,124,-65,-35,20,43,50,52
140,191,53,45,-163,121,-59,-33,21,44,48,51
110,172,64,24,-139,117,-56,-31,20,46,47,50
85,157,72,8,-119,115,-47,-28,19,46,48,49
65,148,83,-7,-105,115,-38,-24,20,47,50,51
49,137,88,-17,-91,111,-31,-18,24,50,55,51
34,124,91,-27,-78,107,-25,-10,30,54,62,54
24,117,95,-34,-69,106,-24,-6,32,56,64,54
14,110,97,-39,-60,103,-24,-5,31,55,62,53
13,102,91,-38,-55,97,-22,-4,27,51,57,50
15,91,78,-30,-51,85,-18,-4,21,46,49,45
18,82,66,-22,-48,74,-20,-10,12,39,40,38
23,76,55,-14,-47,65,-28,-20,1,31,32,29
27,65,40,-5,-44,53,-28,-25,-3,25,27,24
32,56,26,5,-42,41,-23,-29,-4,21,25,25
37,53,16,12,-42,35,-23,-30,-2,20,25,24
41,52,13,16,-44,33,-24,-27,2,21,26,23
44,55,13,17,-48,34,-21,-29,1,22,24,19
43,57,16,15,-47,37,-16,-30,2,21,21,15
44,53,12,18,-46,32,-15,-31,-5,10,17,8
46,45,-1,24,-43,22,-16,-35,-15,-3,10,-2
23,32,11,7,-25,21,-10,-28,-17,-10,8,-2
-15,22,37,-25,-2,30,-1,-17,-13,-12,8,2
-45,19,66,-55,15,42,3,-9,-3,-4,15,8
-74,25,99,-85,26,62,5,1,11,12,27,18
-67,28,95,-80,21,62,-2,-6,9,15,26,16
-40,31,73,-55,5,52,-12,-19,-3,12,20,10
-29,29,59,-43,1,45,-17,-24,-7,10,16,7
-26,23,49,-36,3,35,-19,-25,-6,9,13,6
-23,19,43,-31,3,31,-20,-21,-3,13,19,11
-15,19,33,-23,-1,26,-20,-19,-3,19,27,16
-6,12,18,-11,-1,16,-19,-18,-1,19,27,13
3,3,1,1,-1,2,-18,-18,-1,13,19,6
19,-1,-17,18,-7,-9,-10,-3,3,10,12,-2
33,2,-29,32,-15,-13,4,22,13,8,7,-11
37,1,-35,37,-17,-16,22,43,31,14,7,-12
32,-1,-32,33,-13,-16,43,66,55,23,14,-8
28,8,-19,25,-16,-5,50,87,85,46,34,12
27,23,-3,17,-23,11,49,108,121,76,60,40
36,48,14,13,-40,31,38,120,163,123,102,80
55,79,26,16,-64,52,17,123,212,179,154,126
94,110,18,39,-100,63,-17,107,250,235,210,180
147,145,-1,76,-144,72,-66,75,280,292,267,242
211,195,-14,114,-201,90,-135,29,311,359,344,317
279,258,-20,151,-266,119,-216,-27,338,433,431,405
357,338,-18,189,-346,159,-305,-80,378,518,531,504
439,428,-9,226,-431,208,-402,-131,427,613,640,610
509,511,4,254,-508,256,-497,-190,458,699,736,703
572,589,17,278,-578,302,-592,-253,481,780,825,788
606,617,12,299,-610,314,-666,-317,468,816,862,823
624,615,-8,317,-617,303,-727,-382,433,821,867,827
627,589,-37,333,-606,274,-774,-455,354,768,821,786
616,544,-71,346,-579,235,-811,-531,243,671,738,709
566,498,-67,319,-530,215,-820,-607,107,538,616,601
483,443,-39,262,-461,201,-805,-681,-51,369,461,465
394,383,-11,204,-387,185,-764,-711,-172,211,318,340
299,319,21,140,-307,169,-703,-711,-274,53,176,218
220,254,34,95,-236,143,-629,-688,-335,-63,64,118
155,194,41,58,-173,118,-546,-643,-365,-146,-23,34
103,158,56,26,-129,108,-459,-577,-367,-199,-78,-17
68,142,77,-3,-103,109,-369,-490,-335,-218,-100,-38
24,134,112,-43,-77,123,-287,-399,-273,-198,-88,-33
-21,131,153,-86,-53,142,-214,-301,-187,-143,-49,-3
-26,127,155,-90,-49,142,-163,-221,-106,-83,-9,24
-9,121,132,-70,-54,127,-130,-154,-34,-26,28,46
2,108,107,-52,-53,107,-99,-104,19,21,56,65
5,89,84,-39,-45,86,-69,-70,51,49,73,73
9,66,58,-24,-36,63,-53,-58,57,57,70,67
11,44,33,-10,-26,39,-48,-62,44,48,52,49
13,28,15,0,-19,21,-41,-69,25,27,25,27
18,17,0,10,-16,9,-33,-77,9,4,-5,7
21,19,-3,14,-18,7,-28,-78,0,-10,-18,-4
24,25,1,12,-23,13,-25,-75,3,-13,-15,-5
29,34,6,12,-29,20,-22,-66,18,-3,-3,3
30,42,12,9,-34,26,-18,-52,38,15,12,18
35,42,8,15,-37,24,-13,-44,53,34,25,28
37,36,-1,20,-35,18,-8,-41,59,48,34,32
24,28,5,10,-25,17,-3,-44,61,51,36,31
3,20,18,-6,-10,20,2,-50,58,45,33,25
-15,16,31,-22,1,23,4,-57,46,33,26,19
-28,12,40,-33,9,25,4,-63,35,21,19,13
-20,20,40,-29,2,29,5,-62,35,15,17,11
1,35,34,-15,-17,35,8,-57,46,17,19,15
19,42,23,0,-29,33,9,-52,55,23,21,16
35,43,10,13,-37,26,11,-49,60,29,23,19
43,41,-1,23,-40,21,13,-46,66,34,24,18
49,37,-10,30,-40,14,15,-44,67,37,24,14
51,40,-10,32,-45,16,18,-48,67,33,21,11
55,48,-7,32,-49,21,23,-56,63,23,12,8
38,48,10,16,-42,29,27,-59,58,18,12,8
10,43,33,-10,-25,38,32,-59,58,22,17,11
-4,41,45,-23,-17,45,32,-60,58,21,18,11
-11,44,55,-33,-15,50,29,-60,60,21,17,9
-13,45,58,-34,-15,53,28,-58,68,28,23,15
-11,47,59,-34,-17,54,27,-51,80,37,35,26
-14,49,64,-38,-15,57,28,-47,88,46,42,34
-20,51,71,-45,-14,61,30,-45,92,52,44,37
-26,50,76,-49,-10,62,29,-45,96,56,49,40
-28,45,73,-50,-7,60,24,-50,97,58,53,41
-25,40,65,-44,-7,53,19,-53,95,56,48,40
-18,34,53,-34,-6,44,16,-58,93,52,37,36
-4,34,38,-21,-14,36,12,-61,92,50,34,32
13,38,27,-6,-24,33,8,-63,93,50,36,30
23,42,19,2,-31,30,6,-67,91,45,34,26
29,46,18,6,-37,32,4,-71,87,40,31,23
18,50,31,-7,-32,41,13,-63,99,51,40,35
-3,52,54,-28,-23,53,29,-46,116,69,59,56
-23,50,74,-48,-12,61,37,-43,125,79,69,63
-45,45,89,-66,1,65,38,-53,127,84,75,62
-29,47,76,-52,-8,62,33,-59,123,81,75,59
8,56,49,-19,-30,52,23,-66,119,74,70,54
28,61,33,-2,-42,47,19,-68,118,71,68,52
38,62,25,7,-48,44,18,-69,120,70,64,53
43,61,19,14,-50,40,19,-69,124,69,63,53
49,60,12,20,-53,35,18,-67,129,69,64,54
50,53,4,24,-50,29,13,-69,130,69,63,52
47,45,-2,25,-44,21,7,-73,131,70,61,50
53,44,-9,32,-46,18,2,-75,132,70,59,48
60,45,-14,39,-51,16,1,-77,133,70,58,47
63,49,-13,40,-55,18,0,-74,134,71,61,47
60,52,-8,35,-54,22,1,-69,134,73,66,48
58,54,-4,32,-54,25,2,-67,135,73,66,47
60,56,-4,33,-56,26,1,-70,136,71,61,43
72,64,-7,41,-66,27,0,-71,138,69,58,38
96,80,-14,56,-87,33,-2,-69,140,66,58,33
116,92,-23,71,-102,34,1,-69,140,61,53,32
136,102,-34,86,-117,34,6,-66,140,54,49,33
124,104,-20,74,-113,41,10,-54,152,65,60,43
90,98,10,42,-93,55,19,-38,171,86,79,59
73,100,25,26,-85,62,22,-28,188,103,92,71
64,99,36,15,-80,68,22,-24,204,119,100,83
45,94,50,-1,-68,72,29,-19,216,134,110,94
17,88,71,-24,-52,79,35,-11,226,147,120,105
-1,87,87,-43,-42,87,47,-2,236,162,132,117
-9,93,101,-53,-42,97,60,10,246,177,144,130
-3,93,98,-49,-44,96,58,13,254,186,151,132
16,96,81,-32,-54,89,48,12,260,189,153,130
45,102,58,-5,-72,81,37,10,260,187,151,127
79,111,32,25,-93,71,28,7,257,182,145,123
109,125,16,48,-116,72,28,8,260,181,144,124
131,139,9,62,-134,74,32,11,268,185,148,127
143,146,4,70,-144,76,34,12,274,191,153,132
148,153,5,72,-149,80,36,13,279,198,160,138
141,152,11,66,-145,82,40,13,284,204,165,144
131,151,21,56,-139,87,46,17,287,210,173,149
122,152,31,46,-136,92,46,19,296,223,183,157
115,157,42,37,-134,101,43,23,308,237,196,166
113,161,49,32,-135,105,39,26,316,246,201,171
110,162,53,29,-134,108,33,25,322,249,202,172
116,163,48,34,-138,106,32,29,328,252,202,177
127,165,38,45,-145,102,35,32,332,253,200,180
130,165,35,49,-147,100,33,34,338,259,208,185
131,165,34,49,-147,100,29,37,346,268,218,192
140,169,28,57,-154,100,30,34,348,274,221,195
159,182,23,69,-170,102,34,31,349,276,221,198
176,194,18,79,-184,107,34,33,354,280,226,204
20,17,-4,13,-19,7,0,3,47,29,26,31
87,94,6,41,-90,51,10,20,170,129,110,105
117,134,17,52,-125,75,15,25,242,188,161,145
139,157,18,62,-148,88,22,40,264,211,182,162
154,166,13,71,-158,89,29,58,261,213,186,165
153,167,14,71,-159,90,29,74,246,210,185,162
150,166,19,67,-157,92,24,90,236,214,187,161
154,175,23,67,-163,99,27,108,241,227,195,170
168,195,28,72,-180,111,33,131,259,249,211,187
182,214,33,76,-197,123,39,155,281,274,231,206
193,228,37,79,-208,133,43,182,297,296,249,222
200,240,41,81,-219,141,46,203,297,305,255,227
200,243,44,78,-220,144,47,215,278,299,251,222
186,234,49,71,-208,140,47,225,243,278,234,208
166,216,51,58,-189,133,45,229,200,247,212,188
140,198,58,43,-168,127,44,234,168,223,195,171
116,182,66,28,-149,124,46,239,150,208,183,161
94,169,75,11,-130,122,49,239,139,200,176,153
74,160,86,-4,-115,123,58,239,133,202,171,151
65,152,87,-9,-108,119,55,238,127,201,166,146
62,143,81,-8,-102,112,46,238,119,195,161,136
60,140,80,-8,-99,110,48,243,108,186,153,130
57,136,80,-10,-95,108,56,248,94,173,141,121
41,125,83,-19,-81,104,57,248,72,158,130,108
18,108,91,-36,-62,98,53,243,48,142,117,94
13,99,85,-36,-54,92,46,236,25,121,101,79
23,98,76,-25,-60,87,36,227,9,101,85,66
35,101,68,-16,-66,84,28,224,2,89,79,60
49,111,61,-5,-79,85,23,225,1,81,79,59
60,115,56,3,-86,85,24,228,4,80,80,60
65,114,50,8,-89,83,30,232,4,79,78,60
71,115,45,14,-91,79,35,231,1,79,75,59
73,109,39,18,-89,74,40,226,-7,77,71,53
57,98,42,9,-76,70,37,224,-14,72,68,48
30,80,51,-11,-54,66,30,221,-18,66,66,44
19,70,53,-16,-42,61,29,221,-27,60,59,38
18,65,50,-15,-41,57,29,222,-35,54,49,34
16,63,47,-14,-38,55,29,225,-35,52,48,32
24,67,45,-9,-45,55,29,227,-33,53,50,32
29,70,42,-5,-48,55,28,229,-32,53,51,32
36,73,38,1,-54,55,28,230,-31,53,50,32
43,76,34,6,-59,55,27,230,-33,53,48,32
47,77,31,10,-61,54,25,230,-36,51,44,31
47,76,30,11,-61,53,23,229,-41,49,40,29
44,73,31,9,-58,52,22,230,-45,48,36,28
39,70,33,5,-54,51,23,231,-48,48,33,27
34,67,35,1,-50,51,23,232,-49,48,32,26
30,65,37,-2,-47,51,24,233,-49,49,32,26
26,65,40,-5,-45,52,25,234,-47,50,34,27
22,65,44,-9,-43,55,26,235,-45,52,37,29
18,66,49,-13,-41,57,28,235,-43,55,41,33
16,67,52,-16,-41,59,29,234,-41,58,45,37
17,68,52,-15,-42,60,30,233,-41,58,47,40
22,70,49,-11,-45,60,32,232,-42,57,49,42
28,71,44,-6,-49,58,33,231,-43,56,49,43
33,71,39,-1,-51,55,34,229,-45,55,48,43
34,67,34,2,-49,51,33,225,-48,53,46,41
31,62,32,2,-45,47,31,219,-51,52,44,38
25,58,33,-1,-41,46,30,213,-54,50,41,36
20,57,37,-6,-38,47,29,209,-54,50,39,35
16,57,42,-10,-36,50,29,209,-54,50,37,34
13,57,45,-13,-35,51,28,210,-52,50,36,34
11,57,46,-15,-33,52,26,213,-50,51,36,34
10,56,47,-16,-32,52,25,215,-48,51,37,35
10,57,47,-17,-32,51,24,217,-46,51,39,35
13,59,47,-16,-35,52,25,218,-44,51,41,36
17,63,47,-14,-38,54,26,218,-42,53,44,37
19,66,48,-13,-41,56,27,219,-40,55,46,38
21,69,48,-13,-44,58,28,219,-38,56,47,39
22,71,49,-12,-45,59,28,219,-36,56,48,40
23,73,50,-12,-47,60,29,219,-34,54,48,40
25,74,50,-12,-49,61,29,219,-33,53,47,39
27,76,50,-10,-51,62,29,218,-32,52,47,38
31,77,47,-7,-53,61,27,217,-32,53,46,36
36,76,41,-2,-55,58,25,215,-33,52,45,33
40,75,35,3,-57,54,23,212,-35,51,44,30
43,72,29,7,-57,50,21,209,-37,49,42,28
44,69,26,9,-56,47,19,207,-37,48,40,27
41,66,24,9,-53,44,18,206,-36,48,39,27
37,62,24,8,-50,42,18,204,-36,48,39,28
33,59,25,5,-46,42,19,201,-35,48,38,28
27,56,29,0,-41,42,22,200,-35,49,38,30
21,54,34,-5,-37,44,25,200,-33,51,39,32
16,54,39,-11,-34,47,29,202,-30,55,40,36
10,55,45,-16,-32,50,32,204,-26,59,42,40
7,56,50,-20,-30,53,35,205,-23,62,43,43
6,57,52,-21,-31,54,37,205,-22,64,44,45
8,57,50,-19,-32,54,36,203,-22,65,44,45
12,56,46,-16,-33,51,35,199,-25,64,43,43
16,54,39,-10,-34,47,32,195,-28,61,42,40
23,53,32,-3,-37,43,29,191,-31,59,40,36
30,53,24,4,-41,39,26,187,-34,56,38,31
35,54,19,9,-44,37,24,182,-36,52,36,27
37,53,17,11,-44,35,23,177,-37,48,35,23
34,51,18,9,-42,35,22,174,-37,45,33,21
29,49,22,5,-39,36,21,171,-35,43,33,20
23,48,27,0,-35,38,21,171,-33,42,34,21
18,49,32,-5,-33,41,21,173,-31,41,35,22
16,52,37,-9,-33,45,23,175,-29,41,37,24
14,57,43,-13,-35,50,24,177,-27,42,38,26
13,62,48,-16,-36,55,26,178,-25,45,40,29
11,65,53,-19,-37,59,28,178,-22,48,42,32
9,66,55,-21,-36,61,28,177,-20,51,44,35
7,65,56,-23,-35,61,27,175,-19,54,46,37
7,64,55,-23,-35,60,25,173,-18,57,47,38
9,65,54,-22,-36,60,23,170,-18,58,48,38
13,66,52,-19,-39,59,22,167,-18,58,48,37
16,66,50,-16,-40,59,21,164,-20,57,47,36
18,67,49,-15,-41,58,21,160,-22,55,45,35
17,66,49,-15,-40,58,22,157,-23,53,44,34
14,64,50,-17,-37,57,23,154,-24,52,42,33
12,62,51,-19,-35,57,22,152,-24,50,41,31
12,62,50,-18,-35,56,21,149,-24,49,40,29
16,63,48,-15,-38,56,20,147,-24,47,39,27
20,64,45,-11,-41,55,18,144,-24,46,38,26
23,63,42,-8,-41,53,16,141,-25,44,37,25
23,60,39,-7,-40,50,14,138,-25,43,37,25
21,56,37,-7,-37,47,12,135,-25,41,36,26
17,52,37,-9,-33,44,11,131,-26,40,36,26
12,47,37,-12,-29,42,9,127,-27,39,35,26
7,44,37,-14,-25,41,8,124,-27,37,35,25
4,43,38,-15,-24,41,7,122,-27,35,34,24
4,43,39,-16,-24,42,8,122,-25,34,34,24
5,46,40,-16,-26,43,11,122,-23,34,34,24
8,50,41,-15,-29,45,14,123,-20,36,35,25
13,56,42,-13,-34,49,17,124,-17,38,36,26
19,64,44,-11,-41,54,21,125,-14,41,37,28
24,73,48,-11,-48,60,26,126,-11,43,39,30
26,81,55,-13,-53,68,31,128,-7,45,41,33
23,87,64,-19,-55,75,36,129,-3,48,44,36
17,89,73,-26,-53,81,40,130,0,50,46,38
10,90,80,-33,-50,84,42,130,2,52,48,39
6,90,85,-38,-47,87,42,129,2,53,49,39
7,93,87,-39,-49,90,42,127,3,54,50,40
12,98,87,-36,-54,92,41,126,3,54,50,40
18,103,86,-32,-60,94,40,124,3,54,50,41
23,106,84,-29,-64,94,40,123,5,53,51,42
27,108,82,-26,-67,94,41,123,8,54,52,44
31,110,79,-22,-70,94,42,124,13,57,55,48
37,112,76,-18,-74,94,44,127,19,61,58,54
43,116,73,-13,-79,95,43,128,24,66,61,58
49,120,71,-9,-84,96,40,128,27,69,64,61
55,124,69,-5,-89,97,35,126,28,72,65,62
58,128,69,-3,-93,99,30,122,28,74,66,63
59,130,71,-5,-94,101,26,117,29,76,65,64
55,132,77,-10,-93,105,22,112,29,78,65,65
48,134,86,-17,-90,110,18,105,28,78,65,66
41,136,95,-25,-88,115,13,98,26,77,66,66
38,139,101,-30,-87,119,7,89,23,76,65,64
38,142,104,-32,-89,122,0,81,19,73,65,62
41,145,104,-31,-92,124,-7,73,16,70,65,61
44,149,105,-30,-95,126,-12,67,15,68,65,62
45,151,105,-30,-97,128,-14,63,16,68,65,65
46,152,105,-29,-99,129,-14,62,20,70,66,69
50,151,101,-25,-100,127,-13,62,24,73,67,72
56,150,94,-18,-103,122,-14,61,27,75,67,73
63,147,84,-10,-105,116,-17,60,28,76,66,71
69,143,74,-2,-106,109,-19,57,27,74,64,67
73,137,65,4,-104,102,-20,55,25,71,61,62
73,130,57,9,-100,94,-19,52,22,68,56,57
70,119,50,11,-93,85,-17,49,19,64,51,51
62,105,44,10,-82,75,-14,47,14,60,46,44
47,89,42,4,-67,66,-10,45,10,54,40,38
30,74,44,-6,-51,60,-4,44,7,48,35,32
10,61,50,-19,-34,56,2,44,6,43,31,28
-8,50,58,-32,-20,55,8,43,5,38,28,26
-23,41,63,-42,-8,53,11,41,5,35,24,24
-33,32,65,-48,1,49,12,38,3,31,22,21
-39,24,62,-49,8,44,11,34,0,26,20,17
-42,16,57,-49,14,37,9,30,-3,21,17,13
-44,8,52,-47,19,31,7,26,-5,17,14,10
-45,2,46,-45,23,25,5,22,-6,15,11,9
-45,-5,40,-41,25,18,1,17,-8,12,9,7
-41,-10,30,-34,26,10,-4,11,-10,9,7,5
-33,-15,18,-24,24,2,-10,4,-14,5,5,1
-23,-17,5,-13,20,-6,-15,-1,-18,0,2,-2
-14,-17,-4,-3,16,-11,-18,-5,-19,-3,0,-5
-7,-16,-10,3,12,-13,-19,-6,-19,-4,-2,-6
-1,-14,-13,8,8,-13,-18,-5,-17,-5,-4,-7
5,-10,-16,12,3,-13,-16,-4,-15,-5,-5,-7
11,-5,-17,15,-2,-11,-13,-2,-13,-5,-5,-6
14,-1,-16,16,-6,-8,-9,-1,-10,-5,-5,-5
14,2,-12,14,-7,-4,-5,0,-7,-4,-3,-3
9,2,-6,7,-4,-2,-2,0,-4,-2,-1,-1
0,0,0,0,0,0,0,0,0,0,0,0
-9,-4,6,-7,7,1,5,2,6,4,4,0
-18,-10,9,-13,15,0,9,5,10,5,6,0
-27,-18,10,-18,23,-3,14,9,15,6,7,-1
-35,-27,9,-21,32,-8,21,17,20,6,7,-3
-45,-37,8,-24,42,-14,25,23,26,7,7,-5
-50,-46,5,-26,48,-20,44,40,36,6,9,-10
-47,-46,-1,-22,47,-24,63,62,53,15,13,-9
-39,-44,-6,-15,42,-25,88,88,75,29,21,-4
-28,-33,-4,-10,32,-19,100,115,102,52,38,13
-20,-20,0,-7,21,-11,106,140,136,80,62,38
-8,-2,6,-4,6,2,103,160,175,121,97,75
8,21,13,0,-14,17,91,174,217,173,142,121
26,43,17,6,-35,30,62,167,256,226,198,173
51,69,19,17,-58,44,17,147,293,281,260,230
103,110,9,48,-106,59,-53,106,327,346,331,305
176,166,-10,94,-170,79,-143,50,356,419,411,391
268,246,-22,147,-256,113,-241,-3,390,498,498,486
374,343,-30,204,-357,157,-344,-60,426,582,587,586
472,433,-39,257,-452,197,-444,-123,454,667,674,676
567,519,-47,309,-541,235,-541,-189,477,751,748,759
621,556,-63,344,-588,247,-623,-260,460,783,825,795
649,565,-83,368,-607,242,-696,-330,418,785,838,800
658,549,-108,385,-603,220,-744,-408,335,731,792,759
651,513,-138,397,-582,187,-774,-487,223,638,703,686
596,468,-129,365,-532,170,-781,-562,84,503,579,576
506,412,-94,301,-459,160,-770,-635,-77,330,422,435
401,351,-50,227,-375,150,-728,-663,-199,171,281,311
283,283,0,144,-282,141,-660,-661,-302,13,143,193
191,222,32,82,-206,127,-586,-632,-362,-97,38,101
116,175,57,31,-145,116,-502,-583,-386,-172,-39,30
52,133,81,-12,-92,107,-422,-518,-382,-216,-87,-17
3,102,101,-49,-53,103,-343,-437,-345,-224,-104,-37
-26,91,117,-70,-32,104,-271,-355,-292,-204,-97,-37
-34,88,122,-77,-26,105,-205,-268,-219,-154,-66,-17
-32,86,118,-73,-27,101,-151,-187,-143,-99,-26,10
-19,77,98,-57,-28,88,-111,-114,-70,-44,15,38
-2,65,68,-33,-30,67,-79,-63,-17,3,41,54
13,47,35,-10,-29,40,-54,-35,12,32,51,54
9,25,16,-2,-17,20,-32,-18,20,38,44,45
-7,4,10,-7,3,7,-11,-13,14,27,25,30
-25,-11,15,-19,18,2,1,-14,-1,7,4,9
-44,-17,27,-34,30,6,6,-18,-15,-12,-9,-10
-42,-9,34,-37,26,13,14,-9,-16,-21,-17,-18
-28,7,36,-31,11,21,22,12,-6,-20,-16,-17
-28,5,33,-29,11,19,20,21,15,8,8,1
-25,4,28,-25,10,16,21,29,24,18,15,6
-21,0,20,-19,10,10,21,35,30,26,19,10
-18,-6,11,-14,11,3,20,36,32,30,20,11
-15,-9,5,-9,11,-2,20,35,29,29,17,10
-13,-11,2,-7,11,-5,21,32,24,25,12,7
-14,-11,2,-7,12,-5,23,30,20,19,7,5
-16,-10,5,-9,12,-3,26,28,17,16,4,5
-17,-8,9,-12,12,0,28,28,18,15,3,6
-17,-7,10,-12,11,1,30,30,21,16,4,8
-14,-7,7,-10,9,0,30,32,25,20,6,9
-11,-9,2,-6,8,-3,29,34,28,23,7,9
-10,-12,-3,-3,9,-7,30,35,30,25,8,7
-9,-14,-6,-1,10,-10,31,35,29,25,7,5
-9,-14,-7,0,10,-11,32,34,28,24,6,3
-7,-13,-6,0,9,-10,33,32,26,23,4,1
-4,-9,-6,2,5,-7,34,31,23,21,3,1
-1,-3,-3,2,0,-3,36,31,22,21,3,2
0,2,1,0,-3,2,38,33,23,22,4,4
0,7,7,-3,-5,7,41,36,27,26,8,8
-1,12,12,-6,-7,12,43,40,32,31,14,13
-2,15,16,-9,-8,15,45,45,38,37,21,17
-3,16,18,-10,-8,17,46,47,41,41,27,21
-2,16,17,-9,-8,17,45,48,43,44,32,22
-2,15,16,-8,-8,15,44,47,43,44,34,23
-1,13,13,-6,-7,13,42,46,42,43,35,22
0,11,10,-4,-6,10,41,45,41,43,35,22
1,9,7,-2,-6,8,40,44,41,43,34,21
2,8,5,-1,-6,7,40,44,42,44,34,22
2,7,4,-1,-5,6,41,45,44,45,34,23
-1,5,6,-3,-3,6,41,46,48,48,35,24
-5,5,9,-7,-1,8,41,48,51,50,37,26
-7,7,13,-10,-1,10,41,49,55,53,39,27
-7,10,17,-12,-2,14,41,50,59,56,42,29
-3,16,18,-10,-7,17,41,50,62,57,44,30
3,22,19,-8,-13,20,40,51,65,59,45,31
6,27,20,-6,-17,23,39,52,67,60,46,32
9,30,21,-6,-20,25,38,54,69,62,47,34
10,33,23,-6,-22,27,36,56,71,65,49,36
11,36,25,-6,-25,30,36,58,73,69,52,38
14,40,26,-5,-28,32,37,60,75,73,54,41
17,43,26,-3,-31,34,38,61,77,77,56,44
20,43,24,-1,-32,33,38,61,77,79,55,45
22,41,20,2,-32,30,38,60,77,81,54,47
23,38,15,5,-32,26,37,59,76,81,53,47
25,35,10,9,-31,21,36,58,75,80,52,47
29,33,4,14,-33,18,36,57,74,78,51,47
35,33,-2,20,-36,15,36,57,73,75,50,46
42,33,-9,26,-39,12,36,57,72,72,48,45
49,35,-14,32,-43,10,35,58,72,71,47,45
54,36,-17,36,-47,10,35,61,74,70,47,45
56,39,-17,38,-49,11,34,65,77,72,50,47
56,42,-14,37,-50,13,33,70,82,75,56,50
55,44,-11,34,-50,16,32,76,88,79,63,55
53,45,-7,31,-50,18,31,82,95,85,71,60
51,46,-5,29,-49,20,30,87,102,90,78,65
49,46,-3,27,-48,21,30,92,108,97,84,71
47,46,-2,26,-47,21,30,96,113,104,90,76
46,45,-1,25,-47,22,29,100,119,111,95,80
46,45,-1,25,-47,22,28,103,124,119,99,83
47,44,-3,26,-47,21,27,106,129,125,103,86
50,44,-6,28,-48,20,25,110,133,130,106,89
54,46,-9,32,-51,19,25,114,138,136,109,93
62,48,-14,38,-56,18,24,119,142,141,111,97
72,52,-20,47,-63,16,23,124,146,145,112,99
83,57,-26,55,-71,16,22,128,150,149,114,101
94,63,-31,63,-80,16,23,133,154,153,116,103
103,71,-32,68,-88,19,25,138,160,157,119,107
109,80,-29,70,-96,26,30,146,168,163,126,113
113,90,-23,69,-102,33,35,155,177,169,134,120
113,97,-15,65,-106,41,40,163,186,177,143,127
110,104,-6,59,-108,49,45,171,195,184,152,135
105,109,4,51,-108,56,49,178,203,191,161,142
100,113,13,45,-108,63,53,185,213,200,170,151
99,119,20,40,-110,69,56,192,223,210,180,160
99,124,25,38,-113,74,57,200,233,220,190,169
102,129,27,39,-116,77,56,207,243,231,199,178
104,132,28,39,-119,79,54,213,252,241,208,185
105,134,29,39,-120,81,53,218,260,248,217,192
108,137,28,41,-123,82,51,222,265,254,224,198
116,141,25,46,-129,83,50,223,268,259,228,202
128,147,19,56,-139,83,48,222,270,263,230,206
144,155,10,68,-151,82,44,219,269,265,229,207
160,163,3,80,-163,83,41,217,268,267,226,208
172,172,-1,87,-173,85,39,217,268,269,225,209
178,179,0,90,-180,89,39,216,268,271,225,211
179,184,5,87,-183,95,40,215,269,273,226,213
175,187,11,82,-182,99,41,214,269,275,227,215
171,187,16,77,-180,102,41,211,267,275,226,215
167,187,20,74,-178,104,41,207,264,273,224,214
165,187,21,72,-178,105,42,204,260,271,222,212
164,187,22,71,-177,105,43,201,257,267,220,210
163,186,23,70,-176,106,43,197,252,264,217,208
159,184,24,68,-173,105,43,192,247,259,214,203
153,179,25,65,-167,102,42,186,239,253,208,197
146,171,26,61,-159,99,40,177,230,245,201,189
138,164,26,57,-152,95,40,168,220,235,192,180
131,157,25,54,-145,91,39,158,208,224,182,170
127,150,23,53,-139,87,39,147,195,212,170,159
125,146,20,53,-136,83,39,137,182,198,158,149
125,143,17,55,-135,80,40,128,168,184,146,138
124,141,16,55,-134,79,41,120,156,170,135,128
121,140,19,52,-132,80,43,114,145,158,125,119
115,139,24,46,-128,81,46,108,136,148,118,112
103,134,31,37,-120,83,49,104,128,138,112,105
89,128,39,25,-110,84,51,100,121,130,106,99
74,122,48,13,-99,85,52,98,115,122,101,93
59,115,56,3,-88,86,53,96,110,114,95,87
49,111,61,-5,-81,86,53,94,105,107,90,82
41,106,65,-11,-74,85,51,91,100,101,85,77
33,98,65,-16,-66,82,47,87,94,95,80,72
25,90,65,-20,-59,78,43,82,88,89,74,67
17,82,66,-24,-50,74,38,76,80,81,67,61
12,74,63,-25,-44,69,34,69,73,73,60,55
16,69,54,-19,-44,62,31,63,64,65,52,49
24,66,42,-9,-46,54,28,57,56,58,45,43
35,63,27,4,-50,45,27,53,49,53,40,40
44,61,17,14,-54,39,27,50,44,49,36,38
45,61,15,15,-54,38,28,49,42,48,35,38
42,61,19,12,-52,39,31,49,42,47,36,39
37,60,24,7,-50,42,32,49,44,48,37,39
32,60,29,2,-47,44,33,49,45,49,39,39
29,59,31,0,-45,44,31,48,45,49,41,38
27,57,31,-1,-43,44,29,47,45,49,42,37
25,55,31,-2,-41,43,26,45,46,49,42,36
24,53,30,-2,-40,41,23,44,46,49,42,35
24,51,27,-1,-38,39,20,42,46,48,41,34
25,49,24,1,-38,36,17,40,44,47,39,33
27,47,20,4,-38,33,14,39,43,46,36,32
29,46,16,8,-38,30,13,38,41,44,33,30
31,44,13,10,-39,28,12,38,39,43,31,29
32,43,11,11,-39,27,13,39,38,42,29,29
31,43,12,11,-38,27,16,42,38,42,28,29
29,43,14,9,-37,28,19,44,39,42,28,31
26,43,17,6,-36,30,22,46,40,43,28,32
24,44,20,3,-35,31,24,48,41,44,29,33
22,44,21,2,-34,32,24,49,42,45,30,34
21,44,22,1,-33,32,24,49,42,45,31,34
20,43,22,0,-32,32,22,48,42,44,31,33
20,41,21,1,-31,30,20,46,41,43,31,31
20,40,19,2,-30,29,17,43,40,41,31,29
20,39,18,2,-30,28,16,40,39,40,30,28
22,39,17,4,-31,27,14,37,38,39,30,27
23,39,16,5,-32,27,13,35,37,39,30,27
25,40,15,6,-33,27,12,34,36,39,30,27
26,41,14,7,-34,27,12,33,36,39,29,27
28,41,13,8,-35,27,12,32,35,38,29,27
29,41,12,9,-36,26,12,31,35,38,28,26
31,41,10,11,-37,25,13,30,34,37,27,26
34,42,8,13,-38,25,14,29,34,37,26,25
36,43,7,15,-40,25,14,29,33,36,25,25
36,44,8,15,-41,26,15,30,33,37,24,25
35,45,10,13,-41,27,16,31,34,38,24,25
32,45,14,10,-39,29,17,33,36,39,24,26
27,44,18,6,-37,31,19,35,37,41,25,28
23,43,21,2,-34,32,20,37,39,43,26,29
19,41,23,-1,-31,32,20,39,41,45,27,31
17,39,24,-3,-29,31,21,40,42,46,28,32
15,37,23,-3,-27,29,21,41,42,47,29,32
13,34,22,-4,-25,27,21,42,43,48,30,33
11,31,20,-4,-22,25,21,43,44,49,30,33
10,28,18,-3,-20,23,21,45,45,50,30,33
9,25,16,-3,-18,20,21,46,46,50,31,33
9,23,15,-2,-17,19,22,47,48,50,30,32
8,22,14,-2,-16,18,22,48,49,49,30,31
7,21,15,-3,-15,18,22,49,50,49,30,31
6,22,17,-5,-15,20,22,50,51,50,30,31
5,24,20,-6,-16,22,21,50,51,50,30,32
5,26,22,-8,-17,24,19,49,51,51,30,33
5,28,23,-8,-18,26,17,48,49,52,30,33
7,29,23,-7,-19,27,14,45,47,52,29,33
8,29,21,-6,-20,26,11,43,45,52,28,33
10,29,19,-4,-21,24,8,40,44,51,27,32
11,27,16,-2,-20,22,6,39,42,50,26,31
12,25,14,-1,-20,20,5,38,41,49,25,30
11,23,13,0,-18,18,4,38,41,47,24,28
9,21,12,-1,-16,17,5,38,41,46,23,26
7,19,13,-2,-14,16,6,39,41,44,22,23
4,18,14,-4,-12,16,7,40,41,42,22,21
2,17,15,-6,-10,16,8,40,41,39,22,18
1,17,16,-7,-10,17,10,41,41,37,21,16
2,18,17,-7,-10,18,11,41,41,36,21,15
3,20,18,-7,-12,19,12,41,41,35,20,15
5,22,18,-6,-14,20,13,42,41,35,20,16
8,24,17,-5,-16,21,13,42,41,35,20,17
10,26,17,-3,-19,22,13,41,41,35,19,18
12,27,16,-2,-20,22,11,39,40,35,19,18
14,28,14,0,-22,21,9,37,39,34,18,18
16,28,13,2,-22,20,6,33,37,33,17,18
16,27,11,3,-22,19,3,30,34,32,16,17
16,26,11,3,-21,18,1,26,32,31,14,16
15,24,11,3,-20,17,0,23,30,30,12,15
12,23,12,1,-19,17,0,21,28,29,10,14
10,22,13,-1,-17,17,0,19,25,29,8,13
7,21,14,-2,-15,17,0,17,22,28,7,11
5,20,15,-4,-14,18,0,16,19,27,6,10
4,19,16,-5,-13,18,1,15,17,26,5,9
2,19,17,-7,-12,18,2,14,15,25,5,9
0,18,19,-9,-11,19,3,15,14,25,5,10
-3,17,22,-12,-9,19,5,16,14,26,6,12
-6,17,24,-14,-7,20,6,17,14,28,7,13
-8,16,25,-16,-5,20,6,18,14,29,9,15
-8,15,25,-15,-5,19,5,18,15,29,11,16
-7,14,22,-13,-5,18,3,17,15,28,12,16
-4,14,19,-10,-6,16,2,16,15,27,13,16
0,14,16,-7,-8,14,0,15,15,25,13,16
3,15,14,-4,-10,14,-1,14,16,25,13,16
5,17,14,-3,-12,14,-1,15,17,25,14,17
5,19,16,-4,-13,17,0,16,19,26,15,19
3,21,20,-7,-13,20,3,18,22,27,16,21
0,24,25,-12,-13,24,5,21,25,28,18,23
-4,26,32,-17,-12,29,8,23,28,30,20,25
-7,29,38,-22,-12,33,11,25,30,32,23,26
-9,32,42,-25,-12,37,13,26,32,34,25,27
-8,36,46,-26,-15,41,15,27,34,35,27,28
-4,41,47,-25,-19,44,17,29,35,37,28,29
2,48,48,-23,-26,48,20,30,37,39,30,31
9,56,49,-20,-33,52,23,32,39,41,31,33
16,64,50,-17,-41,57,27,35,41,45,33,36
23,72,51,-14,-49,61,30,37,44,48,35,39
29,80,53,-12,-55,66,32,39,46,52,37,42
34,87,55,-10,-62,70,32,40,48,55,39,45
38,94,57,-8,-67,75,31,41,49,58,41,47
42,101,60,-8,-72,79,29,41,49,61,42,49
45,107,63,-8,-77,84,26,40,49,63,44,51
47,113,68,-9,-81,90,22,38,49,65,45,52
48,119,72,-11,-85,95,18,36,49,66,46,54
49,124,77,-13,-88,100,12,33,49,66,47,55
51,129,80,-13,-91,104,6,28,48,65,48,55
54,133,80,-12,-95,106,-1,23,46,63,47,55
59,137,79,-9,-99,107,-9,16,44,60,47,53
64,140,77,-6,-103,107,-17,9,40,57,46,52
69,143,74,-2,-107,107,-25,3,37,53,44,50
73,145,73,1,-110,108,-32,-2,34,50,42,49
76,146,71,3,-112,108,-38,-5,32,48,41,49
78,147,70,4,-113,108,-43,-7,30,47,40,49
80,147,69,6,-114,108,-47,-8,28,47,39,50
81,146,66,7,-114,106,-51,-8,27,47,39,52
81,143,64,9,-113,103,-54,-7,25,48,38,53
81,140,61,10,-111,100,-57,-7,24,48,38,54
79,136,59,10,-108,97,-58,-6,23,48,37,55
76,131,57,10,-104,94,-57,-5,22,49,36,55
72,127,56,9,-100,91,-54,-4,22,50,35,55
67,121,55,7,-95,87,-50,-3,22,50,33,54
61,114,54,4,-88,83,-45,-2,23,50,31,52
54,106,53,2,-81,78,-40,-2,22,49,29,48
46,97,51,-1,-73,73,-35,-2,21,46,26,44
39,87,49,-4,-64,67,-31,-3,20,42,23,38
32,77,46,-6,-56,62,-27,-4,18,37,19,32
26,69,43,-7,-49,56,-23,-6,15,31,16,26
22,60,39,-8,-42,50,-21,-8,11,25,12,21
19,52,34,-7,-36,43,-20,-10,7,20,8,16
16,44,29,-6,-31,37,-19,-13,3,15,4,12
14,37,24,-4,-27,30,-20,-15,-2,10,1,8
13,31,19,-2,-23,25,-21,-17,-5,7,-2,6
11,26,15,-1,-20,20,-22,-19,-8,4,-4,4
10,22,12,-1,-17,17,-22,-19,-10,2,-6,2
8,18,11,-1,-15,15,-23,-19,-12,1,-7,1
6,16,10,-1,-12,13,-23,-18,-12,0,-8,0
4,13,9,-2,-10,11,-23,-17,-13,-2,-8,-2
3,10,8,-2,-8,9,-24,-17,-14,-3,-9,-3
2,7,6,-1,-6,6,-24,-17,-14,-5,-9,-5
3,5,3,0,-5,4,-24,-17,-14,-6,-10,-6
3,4,1,2,-5,2,-24,-16,-14,-7,-10,-6
4,3,-1,3,-4,1,-22,-15,-13,-8,-9,-6
4,2,-2,3,-4,0,-19,-13,-11,-8,-8,-5
3,1,-2,3,-3,-1,-15,-10,-9,-7,-6,-4
5,1,-4,5,-2,-2,-14,-9,-8,-7,-5,-4
3,-1,-1,2,0,-1,-6,-5,-3,-4,-3,-2
0,0,0,0,0,0,0,0,0,0,0,0
-1,3,4,-2,0,5,8,6,5,4,2,2
-4,6,10,-6,0,9,16,14,12,8,5,4
-7,8,17,-12,1,14,25,24,20,13,7,6
-10,11,22,-16,0,18,35,37,28,17,10,5
-15,12,28,-20,1,21,47,48,37,22,13,5
-2,17,22,-11,-6,20,62,65,49,26,17,-2
4,17,13,-4,-9,16,73,84,65,33,23,-1
9,13,5,3,-11,9,82,106,83,43,33,4
20,16,-2,12,-18,7,79,118,106,62,49,20
36,28,-7,24,-32,10,68,132,134,86,75,43
75,46,-27,52,-61,10,51,137,165,126,112,79
128,71,-54,93,-99,9,30,139,201,178,159,129
179,104,-72,128,-142,17,-7,124,233,229,216,185
227,140,-84,157,-183,29,-56,93,265,284,280,249
281,193,-85,185,-236,54,-121,54,301,350,354,331
336,253,-82,211,-294,85,-198,4,341,428,439,422
414,336,-75,246,-373,130,-286,-48,385,521,531,528
503,435,-65,285,-468,185,-382,-102,428,623,630,640
562,508,-52,308,-535,228,-481,-169,447,701,715,728
607,568,-36,323,-587,266,-581,-241,454,766,816,800
640,580,-58,351,-609,260,-661,-317,417,777,834,810
665,561,-103,386,-613,228,-725,-392,355,753,810,780
659,532,-124,393,-595,204,-768,-470,254,676,741,717
625,488,-136,382,-556,175,-793,-551,127,556,637,624
543,437,-105,326,-490,166,-787,-616,-14,409,500,508
426,372,-51,240,-399,160,-757,-679,-172,233,332,365
329,309,-17,175,-318,145,-706,-693,-278,85,196,246
242,250,10,117,-245,130,-636,-676,-352,-54,71,139
171,196,26,74,-184,111,-559,-637,-392,-148,-20,53
113,155,43,36,-133,98,-477,-575,-399,-204,-84,-9
63,128,67,-1,-95,98,-397,-506,-379,-232,-118,-44
28,118,93,-31,-72,106,-317,-419,-324,-224,-118,-51
11,119,111,-48,-65,115,-253,-332,-261,-192,-99,-41
13,122,112,-48,-66,117,-199,-245,-188,-137,-63,-19
24,122,99,-37,-71,111,-153,-165,-114,-76,-23,11
38,112,76,-18,-74,94,-115,-102,-50,-22,10,37
52,95,44,5,-73,69,-88,-61,-12,16,29,46
61,74,16,25,-66,44,-65,-42,0,33,30,39
50,45,-3,28,-47,21,-51,-37,-5,25,17,24
29,21,-5,17,-24,9,-45,-38,-20,5,-2,10
10,11,4,5,-10,7,-29,-41,-35,-19,-22,-6
-3,13,17,-8,-6,15,-9,-38,-38,-34,-33,-14
-5,20,26,-14,-7,24,0,-29,-31,-34,-31,-12
7,21,15,-2,-14,17,-4,-16,-7,-7,-11,2
10,20,11,1,-16,15,0,-8,5,2,-5,6
13,17,5,6,-15,10,2,-2,14,12,0,8
15,11,-3,10,-13,3,2,2,18,18,2,8
14,4,-9,13,-10,-3,1,1,16,15,-2,3
13,-2,-15,15,-6,-9,0,-3,10,9,-9,-4
12,-6,-18,16,-4,-12,-1,-7,3,1,-17,-11
11,-7,-17,15,-3,-13,0,-9,-2,-6,-23,-16
11,-6,-15,14,-3,-11,2,-9,-4,-9,-26,-18
11,-3,-13,13,-5,-9,5,-7,-1,-9,-24,-17
11,-1,-11,12,-6,-7,8,-3,4,-5,-20,-14
10,-1,-10,11,-6,-6,11,1,10,0,-14,-10
6,-2,-7,7,-3,-5,14,4,16,6,-9,-6
-3,-4,-1,0,2,-3,17,8,21,11,-4,-2
-12,-6,7,-9,8,0,19,10,24,14,-1,1
-19,-6,14,-16,12,3,21,10,26,17,0,2
-22,-4,19,-20,13,7,20,10,26,17,0,3
-21,0,21,-20,10,10,19,10,27,17,0,3
-16,4,21,-18,5,12,16,9,28,17,1,5
-10,8,19,-14,0,13,11,8,31,18,4,6
-2,12,15,-8,-6,13,7,8,34,20,8,8
8,15,9,0,-12,12,4,8,38,22,11,9
19,18,0,10,-19,9,2,6,39,23,13,8
32,21,-10,21,-27,5,2,4,39,23,13,6
43,22,-20,32,-33,1,2,1,37,21,10,2
51,21,-29,40,-37,-4,3,-3,33,18,6,-2
53,19,-33,43,-37,-7,4,-6,30,15,2,-5
50,17,-32,41,-34,-8,7,-7,29,14,-1,-7
41,14,-26,34,-29,-6,12,-5,30,14,-1,-5
29,13,-15,23,-22,-1,17,0,36,15,2,0
17,11,-5,12,-16,3,23,6,42,18,6,5
11,11,2,5,-13,7,26,11,47,20,10,10
8,12,5,2,-12,9,28,15,51,22,14,12
10,14,6,3,-14,11,30,18,55,23,17,13
13,18,7,4,-17,13,30,21,58,25,19,15
15,22,8,4,-20,15,31,24,63,29,23,17
17,26,10,4,-22,18,32,28,68,34,28,21
18,28,12,3,-24,20,31,31,72,39,33,26
19,30,12,3,-25,21,30,34,76,44,37,29
20,30,12,4,-26,21,27,34,78,47,40,30
22,30,9,7,-27,20,23,33,78,49,41,29
27,30,4,11,-29,17,19,31,77,50,41,27
31,31,1,16,-32,15,16,28,77,50,40,25
34,32,-1,18,-34,15,15,28,79,51,41,25
35,34,0,18,-35,16,16,29,82,52,42,25
33,35,3,16,-35,18,18,31,86,54,44,27
31,35,5,13,-34,20,21,33,88,56,46,29
30,34,5,13,-33,19,24,34,88,57,47,30
31,33,3,15,-33,18,26,35,89,57,47,32
36,34,-1,19,-36,17,28,37,90,57,48,35
43,36,-5,25,-40,15,29,40,92,58,49,38
52,40,-11,32,-47,15,29,43,94,60,50,41
62,44,-16,39,-54,14,28,46,96,63,51,44
70,49,-20,45,-60,15,25,49,98,66,52,47
76,53,-21,49,-65,16,22,51,101,69,53,50
78,57,-21,50,-68,18,19,54,103,72,55,54
80,60,-19,50,-71,21,18,56,107,76,58,57
83,64,-17,51,-74,23,18,58,112,80,61,60
85,68,-16,51,-78,26,19,62,118,84,65,64
87,72,-13,50,-80,30,21,67,125,89,70,68
85,75,-9,48,-81,33,24,73,134,95,76,73
80,75,-4,42,-78,35,26,80,142,103,83,80
74,74,1,36,-75,37,28,85,151,112,91,87
68,72,6,31,-71,38,29,88,158,121,98,94
65,71,8,29,-69,39,28,90,164,129,104,101
67,72,6,31,-71,39,27,91,170,137,110,106
72,74,3,35,-75,39,25,93,175,145,116,111
78,77,1,39,-79,39,23,96,180,151,121,115
83,82,0,41,-84,42,22,100,185,157,126,119
87,89,3,42,-89,47,23,105,191,163,132,124
92,97,7,43,-96,52,24,111,198,169,138,130
98,106,9,45,-103,58,25,117,205,176,144,135
106,115,10,48,-112,62,27,122,211,183,150,140
115,123,9,53,-120,66,27,127,217,188,154,144
124,131,8,58,-129,69,28,131,223,193,159,148
134,141,7,63,-138,73,30,136,229,199,165,153
142,149,8,67,-146,78,32,142,236,206,170,158
148,155,8,70,-152,81,33,146,243,213,176,163
152,160,8,72,-157,83,33,150,249,220,181,168
155,162,8,74,-160,85,33,153,254,226,184,172
159,164,6,77,-162,85,31,155,257,232,187,176
163,166,3,80,-166,85,29,157,260,238,190,180
168,169,2,83,-169,86,27,160,263,243,194,184
171,173,3,84,-173,89,25,164,265,249,199,188
172,179,8,82,-177,94,24,169,267,254,205,193
170,184,15,78,-179,100,25,176,270,260,212,199
167,189,23,72,-180,107,27,184,273,265,219,205
163,192,30,67,-179,111,30,192,275,270,226,211
156,192,37,61,-176,115,33,199,276,274,231,214
149,191,43,54,-172,117,35,204,275,276,234,216
141,188,49,47,-166,119,37,208,272,276,236,215
131,184,55,39,-159,120,39,210,266,274,235,212
124,181,59,33,-153,120,40,210,260,271,233,208
122,179,59,33,-152,119,41,209,253,265,228,202
125,178,56,35,-152,117,41,206,244,258,222,196
129,178,50,40,-155,114,42,202,235,251,214,189
133,176,45,45,-156,111,42,197,224,242,205,180
133,173,41,47,-154,107,41,190,212,232,195,170
132,169,38,47,-151,103,40,182,198,219,183,159
130,164,35,48,-148,100,38,172,183,204,170,148
127,159,33,48,-144,96,37,163,167,188,156,137
121,152,31,46,-137,91,36,154,152,172,144,126
114,144,31,42,-130,87,36,145,139,158,133,117
103,135,33,36,-120,84,37,139,127,147,123,110
91,126,36,28,-110,81,37,133,117,136,114,103
80,117,38,21,-100,77,37,127,107,126,104,96
71,109,40,16,-91,74,36,121,96,115,94,87
63,102,40,12,-84,71,34,114,85,104,83,78
58,96,39,10,-78,67,31,108,74,92,72,67
55,90,36,9,-73,63,28,102,64,82,62,58
52,85,34,10,-70,60,26,96,55,72,53,49
52,83,32,11,-68,57,25,92,47,63,47,42
52,81,31,11,-68,56,26,89,41,56,42,37
51,82,32,10,-68,57,28,87,38,50,39,32
51,82,32,10,-68,57,30,86,35,45,37,28
50,82,33,9,-67,57,32,86,34,41,35,24
49,81,33,9,-66,57,33,85,32,38,34,22
47,79,33,8,-64,56,33,83,30,36,33,20
44,78,34,6,-62,56,32,82,28,34,31,18
41,76,36,3,-59,56,32,80,25,33,30,17
36,74,39,-1,-56,56,30,79,22,32,28,17
31,71,41,-4,-52,56,29,78,19,31,26,16
27,68,42,-7,-49,55,26,76,16,30,24,16
24,64,42,-8,-45,53,23,75,14,28,22,15
21,59,40,-8,-42,49,20,73,11,26,21,15
20,54,36,-7,-38,45,17,72,9,24,19,14
18,50,33,-6,-35,41,15,71,8,22,18,14
17,46,31,-6,-32,38,13,70,7,21,18,13
15,43,29,-6,-30,36,12,69,6,20,18,13
14,42,30,-7,-29,35,11,69,6,20,18,13
12,42,31,-9,-28,36,10,68,6,20,19,14
11,44,34,-11,-28,38,10,67,6,21,20,15
9,46,37,-13,-28,41,11,67,7,23,21,16
8,48,41,-16,-29,44,12,67,7,23,22,17
6,50,45,-19,-29,47,13,67,8,24,23,17
5,51,47,-21,-29,49,14,67,8,24,23,16
5,53,49,-22,-30,50,14,66,9,23,23,14
5,54,49,-22,-30,51,14,65,8,21,22,12
7,54,48,-20,-31,51,14,63,7,20,20,9
9,54,46,-18,-33,50,14,61,5,18,18,6
12,54,43,-15,-34,48,13,59,3,16,17,4
15,53,39,-12,-35,46,12,57,2,15,15,2
18,51,34,-8,-36,43,11,55,0,14,14,0
21,49,29,-4,-37,39,10,55,-1,13,13,0
24,48,24,0,-37,36,9,55,-2,12,13,0
27,46,20,4,-38,33,8,55,-1,12,13,0
29,45,16,7,-38,30,8,56,0,13,14,2
31,44,14,9,-39,29,7,57,2,14,15,4
32,44,13,10,-39,28,7,58,4,16,17,6
34,44,12,11,-40,27,7,60,7,17,19,8
35,44,11,12,-41,27,7,61,10,19,21,10
36,45,11,13,-41,27,7,62,12,21,23,12
35,45,11,12,-41,27,8,63,15,24,25,13
34,44,12,11,-40,27,8,64,17,26,27,15
31,43,13,9,-38,28,9,66,20,28,29,17
29,42,14,7,-36,27,11,68,22,31,31,20
27,40,15,6,-34,27,12,69,24,33,32,23
25,38,15,5,-32,26,14,71,26,35,34,25
23,36,15,5,-30,25,16,73,27,36,35,28
21,34,15,4,-29,24,18,74,28,36,35,30
20,33,15,3,-27,23,20,75,29,36,35,31
18,31,15,2,-26,23,21,76,29,35,34,32
16,30,16,1,-25,23,22,76,28,33,33,32
15,29,16,0,-24,23,22,75,27,32,32,32
14,29,16,0,-23,23,22,74,26,31,30,31
14,29,16,0,-23,22,22,72,25,30,29,30
15,29,15,0,-24,22,22,70,24,29,28,29
16,30,14,1,-24,22,22,68,23,28,27,27
18,31,13,3,-26,21,22,66,22,27,26,26
21,32,12,5,-28,21,23,65,22,26,25,24
25,34,10,7,-31,22,23,64,21,24,23,23
29,37,9,10,-34,23,24,64,21,23,22,21
32,40,8,12,-37,24,24,64,21,22,21,21
35,42,8,13,-40,25,23,64,21,22,21,21
36,45,9,13,-41,27,22,65,21,23,21,21
37,46,10,13,-42,28,20,65,22,25,22,22
36,47,12,12,-42,29,18,65,22,26,23,23
35,47,14,11,-42,30,16,65,23,28,24,23
33,47,15,9,-41,31,16,65,24,30,26,24
30,46,18,7,-39,32,16,65,25,31,28,25
26,46,20,4,-37,33,17,65,27,32,29,26
23,45,23,0,-35,34,18,65,28,33,31,27
20,45,27,-3,-34,36,20,64,29,34,32,27
17,46,31,-6,-33,38,21,64,29,34,33,27
16,48,34,-9,-33,41,22,63,29,34,34,28
15,49,37,-11,-33,43,23,62,29,34,34,29
14,51,39,-12,-34,45,24,62,29,34,35,30
13,52,41,-14,-34,46,24,62,29,34,36,32
12,52,42,-15,-33,47,24,62,30,34,36,33
10,51,43,-16,-32,47,24,63,31,34,37,35
9,50,43,-17,-30,46,24,63,31,34,37,36
8,49,42,-16,-29,44,24,63,31,34,37,36
8,47,40,-15,-28,43,24,62,30,34,37,36
9,46,37,-14,-28,41,23,60,29,33,36,35
9,44,35,-13,-28,40,23,58,27,32,35,32
9,43,34,-12,-27,38,22,54,24,31,34,30
9,42,33,-12,-26,37,21,50,21,29,32,26
9,40,32,-12,-26,36,19,46,18,27,29,23
9,40,31,-11,-26,35,16,41,14,25,27,19
11,39,29,-10,-26,34,13,37,11,23,24,16
12,39,28,-8,-27,33,10,34,8,21,22,14
14,40,26,-7,-28,33,8,32,6,20,20,12
15,40,26,-6,-29,33,6,32,6,20,20,13
16,42,27,-6,-30,34,5,34,6,20,20,14
16,44,29,-6,-31,36,6,37,8,22,21,16
17,47,31,-7,-33,39,6,41,10,24,23,19
18,51,35,-9,-36,43,7,44,13,26,26,22
19,56,39,-10,-39,47,9,48,16,29,28,24
20,61,42,-11,-42,52,10,50,18,31,31,25
22,66,45,-12,-46,56,10,51,19,32,33,25
24,71,48,-12,-49,60,11,50,19,33,35,25
28,76,50,-11,-54,63,12,50,20,34,36,24
31,81,52,-10,-58,67,13,49,20,34,37,24
34,86,54,-10,-62,70,16,50,21,34,38,25
37,91,57,-10,-65,74,20,51,24,35,40,27
38,96,59,-10,-68,77,24,54,26,37,42,29
39,100,62,-11,-71,81,27,56,30,40,45,33
41,103,64,-12,-73,84,29,59,33,43,48,37
42,107,66,-12,-76,87,30,60,36,47,52,41
44,111,69,-12,-79,90,28,61,39,51,55,45
46,116,72,-13,-82,94,26,61,41,54,58,49
48,122,75,-13,-86,98,23,60,43,57,61,53
51,128,79,-14,-91,103,19,58,44,59,63,56
53,134,82,-14,-95,108,15,54,44,61,65,58
56,140,86,-15,-99,113,9,50,43,62,66,60
58,145,89,-16,-103,117,4,46,42,62,67,61
59,150,92,-17,-106,121,-2,42,39,62,67,62
60,154,96,-18,-108,125,-7,38,37,62,67,63
61,158,99,-19,-110,128,-11,35,35,61,67,65
62,162,101,-20,-113,131,-14,33,34,62,68,68
62,165,104,-20,-114,134,-16,32,34,63,69,71
62,166,105,-21,-115,135,-17,31,35,64,70,74
61,165,105,-21,-114,134,-18,31,36,66,71,76
59,161,103,-21,-111,132,-19,30,37,67,71,77
57,156,100,-20,-108,128,-20,28,37,67,71,76
55,149,95,-19,-104,122,-20,26,36,64,69,73
53,141,90,-18,-98,116,-20,23,34,60,66,69
49,132,85,-17,-92,109,-19,20,32,55,62,64
44,122,80,-17,-84,101,-17,17,29,50,57,59
38,112,76,-19,-76,95,-15,15,26,44,51,54
30,102,74,-21,-67,88,-12,13,23,39,44,49
22,92,72,-24,-58,82,-10,10,19,33,38,44
13,82,70,-28,-49,76,-9,8,15,28,32,39
5,72,69,-31,-40,70,-8,5,10,23,26,34
-2,63,66,-33,-32,64,-8,3,6,18,21,30
-6,55,61,-33,-26,58,-8,0,2,13,16,26
-7,48,56,-30,-22,51,-8,-3,-1,9,12,23
-5,42,48,-26,-20,45,-8,-5,-3,6,9,20
-1,38,40,-20,-20,39,-8,-8,-5,4,6,17
3,34,31,-13,-20,32,-9,-11,-7,2,4,14
8,30,22,-6,-20,26,-11,-14,-10,1,1,10
13,26,14,0,-21,20,-13,-17,-12,0,-1,6
17,22,6,6,-21,13,-15,-20,-15,-2,-3,3
20,18,-1,11,-20,7,-17,-22,-17,-4,-6,-1
23,14,-7,15,-20,3,-19,-23,-19,-6,-8,-3
24,11,-11,18,-18,-1,-20,-24,-20,-8,-9,-5
23,8,-14,19,-17,-4,-21,-24,-19,-9,-10,-5
22,5,-15,18,-14,-6,-21,-23,-18,-9,-10,-5
19,2,-15,17,-11,-7,-21,-22,-17,-9,-9,-5
15,-1,-13,14,-8,-8,-20,-20,-15,-8,-8,-4
11,-2,-12,11,-5,-8,-18,-18,-13,-7,-7,-3
8,-3,-9,8,-3,-7,-16,-16,-11,-6,-5,-2
6,-3,-7,6,-2,-6,-13,-12,-8,-5,-4,-1
2,-5,-4,3,3,-5,-12,-10,-6,-4,-1,1
2,-2,-2,1,1,-2,-7,-7,-4,-3,0,1
0,0,0,0,0,0,0,0,0,0,0,0
-1,3,4,-2,0,3,11,10,6,6,3,1
-5,3,8,-6,2,5,23,23,11,10,5,-1
-8,0,9,-8,5,4,38,40,18,14,8,-3
-12,-4,9,-10,9,1,52,56,22,15,10,-8
-5,-9,-3,0,7,-5,75,88,40,22,17,-8
-4,-9,-3,0,7,-6,93,118,65,35,30,3
-10,-8,3,-6,10,-3,109,149,97,57,52,19
-5,-1,3,-3,3,0,110,173,135,90,83,48
12,11,0,6,-11,5,99,191,174,131,124,86
47,32,-13,31,-40,9,78,194,213,180,173,130
97,62,-34,66,-78,13,44,188,250,233,229,179
146,104,-41,94,-125,31,-9,163,286,291,293,245
198,156,-40,119,-176,57,-76,126,320,355,366,322
260,223,-36,148,-240,93,-162,84,357,435,449,412
327,298,-29,179,-312,133,-259,37,396,524,543,514
404,378,-24,214,-391,177,-354,-13,432,614,638,613
485,464,-18,253,-473,222,-447,-65,469,705,747,710
539,522,-17,279,-530,251,-530,-123,475,770,820,775
579,564,-16,298,-570,274,-608,-185,463,818,874,818
588,553,-34,313,-570,259,-663,-253,411,804,868,806
577,511,-66,322,-543,223,-705,-324,330,744,817,754
541,468,-71,307,-503,199,-731,-401,206,636,717,663
481,416,-64,273,-449,176,-741,-484,52,488,575,540
403,367,-35,219,-384,166,-722,-537,-96,317,424,408
304,313,10,149,-307,160,-680,-578,-248,122,255,265
218,252,35,93,-235,143,-618,-572,-339,-19,128,158
139,193,56,43,-164,123,-542,-538,-389,-129,25,72
79,146,68,6,-111,107,-469,-494,-412,-202,-49,5
38,116,80,-20,-76,98,-398,-434,-405,-240,-92,-36
11,102,92,-39,-56,96,-330,-363,-374,-248,-108,-52
3,100,99,-47,-51,100,-265,-276,-313,-224,-95,-42
0,104,105,-51,-51,103,-206,-190,-240,-176,-59,-19
4,104,102,-48,-53,103,-152,-105,-161,-109,-11,12
10,95,87,-38,-52,90,-112,-37,-92,-47,33,38
11,72,63,-25,-40,66,-81,10,-41,2,65,54
26,48,23,3,-35,35,-67,34,-23,23,67,50
44,23,-21,34,-33,1,-63,36,-31,16,46,28
41,3,-37,39,-22,-16,-51,36,-47,-1,26,8
28,-5,-32,31,-11,-20,-35,36,-62,-22,9,-9
16,-4,-20,20,-5,-13,-24,41,-71,-36,-4,-18
14,7,-6,12,-10,-1,-16,53,-68,-40,-7,-15
16,16,2,9,-16,9,-6,69,-51,-27,6,-2
20,16,-4,14,-19,5,0,85,-27,1,31,11
21,15,-4,14,-19,5,5,94,-16,13,42,17
20,12,-7,14,-17,1,10,101,-8,21,50,20
17,5,-10,14,-12,-4,14,104,-6,23,54,18
12,0,-11,12,-7,-7,17,104,-10,19,53,13
8,-4,-10,9,-3,-8,18,104,-15,13,49,6
5,-5,-9,7,-1,-8,19,105,-20,7,45,1
5,-4,-7,6,-1,-7,19,106,-23,4,43,-3
6,-2,-7,7,-3,-6,19,109,-22,5,44,-4
9,-1,-9,9,-5,-6,19,113,-18,9,48,-2
12,-1,-12,12,-6,-7,19,117,-14,15,53,2
12,-3,-15,13,-5,-10,19,122,-9,20,58,5
9,-7,-16,12,-2,-12,19,126,-6,25,63,9
3,-11,-13,8,4,-13,20,130,-3,29,66,13
-4,-13,-9,2,8,-11,23,132,-2,32,68,16
-7,-10,-3,-2,8,-7,27,135,-2,34,71,19
-6,-6,1,-3,5,-3,30,136,-1,35,74,23
0,-1,-1,0,0,-1,33,137,-2,35,77,25
9,4,-5,7,-7,-1,34,138,-1,36,80,28
19,8,-11,15,-14,-2,35,141,1,38,84,30
28,12,-17,23,-20,-3,35,145,3,41,87,32
35,15,-21,28,-26,-3,36,149,6,44,90,35
39,16,-23,31,-28,-4,37,153,8,47,92,36
38,15,-23,31,-27,-5,37,156,8,48,93,37
33,11,-22,28,-23,-6,37,157,7,48,93,36
26,6,-19,22,-17,-7,37,158,6,49,93,35
16,1,-15,15,-9,-8,36,157,4,48,92,32
7,-5,-12,9,-2,-9,34,155,1,46,89,28
0,-9,-10,4,4,-10,32,153,-2,44,87,25
-4,-11,-8,1,7,-10,30,153,-4,41,85,22
-4,-11,-7,1,7,-10,28,153,-6,41,84,21
-2,-8,-7,2,4,-8,27,155,-6,41,85,21
2,-4,-6,4,0,-6,27,157,-5,42,85,22
7,0,-6,6,-5,-4,27,159,-5,43,86,22
10,4,-6,8,-8,-2,26,160,-5,44,86,23
11,6,-5,8,-9,-1,24,160,-7,44,87,24
12,7,-5,8,-10,0,20,160,-8,44,87,25
16,8,-7,12,-13,0,16,160,-8,44,88,26
21,10,-11,16,-16,-1,13,161,-5,46,90,28
28,11,-17,23,-21,-4,12,163,-1,49,93,31
35,12,-22,29,-25,-5,14,165,6,54,98,34
39,13,-25,32,-27,-6,16,166,11,59,103,36
42,15,-26,34,-30,-6,18,169,17,65,109,39
44,18,-25,35,-32,-4,19,172,21,71,115,41
44,20,-23,34,-33,-2,21,176,25,76,121,44
41,22,-19,30,-33,1,24,182,29,82,127,49
37,23,-14,26,-31,4,27,188,32,87,132,53
31,22,-9,20,-28,6,30,193,35,91,137,58
26,22,-5,16,-25,8,32,198,38,96,141,61
24,21,-3,13,-23,8,33,202,39,100,144,63
24,22,-2,13,-24,9,32,206,41,103,146,65
29,26,-3,16,-28,10,31,211,44,106,146,67
37,31,-5,21,-34,12,30,217,48,109,145,70
46,38,-8,27,-42,14,30,223,52,112,144,74
57,44,-12,34,-51,15,30,229,57,115,143,77
67,50,-16,42,-59,16,31,235,61,119,141,79
77,56,-19,48,-67,17,32,240,65,123,138,81
83,60,-22,53,-72,18,33,245,68,125,134,82
86,64,-21,54,-75,21,34,250,71,128,131,85
85,67,-17,51,-76,25,34,254,75,130,128,89
83,70,-12,48,-77,29,34,259,78,134,127,94
83,74,-8,46,-79,33,33,264,82,139,127,99
87,78,-8,48,-83,35,32,268,85,144,128,105
96,82,-14,55,-90,34,30,272,88,150,129,110
107,86,-21,64,-97,33,28,275,91,155,131,115
116,90,-26,71,-103,32,27,279,95,160,134,121
122,94,-29,75,-108,33,27,283,101,165,139,128
125,99,-27,76,-112,36,29,288,108,172,147,136
127,105,-23,74,-116,41,31,294,116,180,156,144
127,111,-16,71,-119,48,35,302,124,190,167,152
126,117,-8,67,-122,55,40,310,133,200,178,161
123,124,0,61,-124,62,44,319,142,209,189,169
121,130,8,56,-126,69,47,328,150,218,199,176
123,136,14,55,-131,75,49,335,158,226,208,182
127,143,16,55,-136,79,50,342,165,232,216,187
133,148,16,58,-142,82,49,347,170,238,222,190
139,153,14,62,-147,83,48,351,174,243,227,193
142,155,13,64,-150,84,47,354,177,247,230,196
144,156,13,65,-151,84,46,356,179,252,232,199
143,157,14,64,-151,85,45,359,182,257,236,202
142,159,17,62,-151,88,45,361,185,262,240,206
142,162,21,60,-152,91,44,363,188,267,245,210
141,167,26,58,-154,96,44,365,193,272,251,214
142,173,31,55,-158,101,45,367,197,278,256,219
141,178,37,52,-161,107,46,369,202,285,261,224
139,183,44,47,-162,113,47,372,207,293,266,228
136,187,50,43,-163,118,48,373,211,299,268,230
135,189,54,41,-164,121,48,372,211,302,267,230
138,191,54,42,-165,122,46,370,208,301,261,227
144,193,49,48,-169,120,44,365,200,295,251,222
151,193,43,54,-173,117,44,359,190,287,238,215
154,192,39,58,-174,115,44,354,180,278,225,208
153,190,38,58,-172,113,46,348,170,268,211,201
147,186,40,54,-167,113,48,341,159,259,197,195
140,181,43,49,-161,112,50,335,149,250,185,189
134,177,44,45,-156,110,51,327,138,240,173,182
129,172,44,43,-151,108,52,320,128,230,161,174
125,167,43,41,-147,105,53,314,118,219,149,166
119,162,44,38,-141,102,54,307,108,209,138,158
109,155,46,32,-133,100,54,302,98,199,126,149
99,147,48,26,-124,97,53,296,87,188,114,140
89,138,49,20,-114,93,52,289,76,177,102,130
81,128,47,17,-105,88,50,282,64,165,90,120
75,119,44,15,-97,82,48,275,53,153,78,112
70,111,40,14,-91,75,45,269,42,141,66,103
65,102,37,14,-84,69,43,263,31,130,55,95
60,95,34,13,-78,64,43,258,20,120,45,88
54,89,35,10,-72,61,45,254,11,111,35,82
47,85,37,5,-67,61,47,251,4,103,28,78
40,82,42,-1,-62,61,50,248,-1,98,22,76
34,79,46,-6,-57,62,52,246,-6,94,18,73
30,77,47,-9,-54,61,53,242,-10,90,15,70
29,74,46,-9,-52,59,54,239,-14,87,11,65
30,71,42,-6,-51,56,53,237,-18,83,8,60
33,68,36,-1,-52,52,52,236,-23,78,4,55
37,65,29,4,-52,47,49,234,-27,73,-1,50
42,63,22,10,-53,42,45,233,-32,67,-6,45
47,61,14,17,-55,37,41,230,-37,61,-12,40
52,60,7,22,-57,33,38,228,-41,55,-17,36
57,59,2,27,-58,30,35,225,-46,50,-21,32
60,58,-3,31,-60,27,34,222,-49,45,-25,29
62,58,-5,33,-60,26,33,219,-52,42,-28,27
62,57,-6,34,-60,25,33,217,-54,39,-29,25
59,55,-5,32,-58,25,34,216,-55,38,-30,24
55,53,-3,29,-55,25,35,216,-56,37,-30,23
50,52,0,25,-52,26,36,217,-55,36,-30,23
45,50,4,20,-49,27,38,219,-54,36,-30,23
41,49,8,16,-46,29,40,221,-53,35,-29,23
37,49,11,12,-44,30,42,223,-52,34,-28,23
33,48,15,9,-41,31,44,224,-51,34,-27,23
29,47,18,5,-39,32,44,226,-51,33,-26,23
25,46,21,1,-36,33,44,227,-50,33,-25,24
20,45,25,-2,-33,34,43,227,-50,33,-24,24
17,43,27,-5,-31,35,40,225,-50,33,-23,25
14,42,28,-7,-29,35,37,223,-50,34,-22,26
14,41,28,-7,-28,34,34,219,-50,35,-21,26
15,40,26,-5,-28,32,31,215,-50,37,-21,26
17,39,23,-3,-29,31,29,211,-49,38,-20,27
18,39,21,-1,-29,30,28,207,-48,40,-19,28
19,38,19,0,-30,29,27,204,-46,42,-19,29
19,38,19,0,-29,28,27,201,-43,44,-18,31
18,37,19,-1,-28,28,27,198,-40,45,-17,32
16,36,19,-2,-27,27,27,194,-37,46,-17,34
16,35,19,-2,-26,27,28,190,-33,47,-18,35
16,35,18,-1,-26,26,28,185,-29,47,-21,35
17,35,17,0,-27,25,29,179,-26,46,-25,36
20,35,14,3,-28,24,29,171,-23,45,-30,36
25,35,11,7,-30,22,29,162,-20,43,-36,36
30,36,6,12,-33,20,28,152,-17,42,-42,36
36,36,1,18,-36,18,29,141,-13,40,-49,35
42,38,-4,23,-40,16,29,129,-9,39,-56,34
48,40,-8,28,-44,15,30,117,-4,39,-62,33
53,42,-10,32,-48,15,32,105,3,39,-66,33
55,45,-10,33,-51,16,35,94,10,40,-70,34
55,47,-8,32,-52,18,38,85,18,41,-72,35
52,48,-4,28,-51,21,40,76,27,43,-73,37
46,48,1,23,-48,24,42,68,35,46,-74,39
40,48,7,17,-44,26,43,60,43,49,-74,41
35,47,12,12,-41,28,43,52,50,51,-74,43
32,46,14,9,-39,28,43,43,56,53,-75,44
31,44,13,9,-38,27,41,35,60,54,-76,44
32,42,10,11,-38,25,39,26,64,54,-78,44
34,40,6,13,-37,22,37,18,66,54,-80,43
35,37,2,16,-37,19,36,10,68,53,-83,41
37,36,-1,18,-37,17,35,3,69,51,-86,40
38,36,-3,20,-38,16,34,-3,71,50,-88,39
40,37,-3,21,-39,16,35,-8,72,48,-91,38
40,38,-3,21,-40,17,36,-13,74,47,-93,38
40,39,-1,20,-40,18,37,-16,76,46,-94,39
38,40,2,18,-40,20,38,-19,78,45,-95,41
35,41,5,15,-39,22,39,-22,80,45,-96,42
32,41,8,12,-37,24,39,-25,81,45,-97,44
30,41,10,10,-36,25,39,-28,82,44,-98,45
29,42,11,9,-36,26,38,-31,83,44,-99,46
30,42,11,9,-36,26,36,-33,84,43,-100,47
31,43,10,11,-37,26,35,-35,85,43,-100,47
33,43,8,12,-38,25,33,-37,86,42,-101,47
34,42,6,14,-39,24,32,-39,87,42,-101,46
35,41,5,15,-38,23,31,-41,87,42,-102,45
35,39,3,16,-37,22,30,-43,87,42,-103,44
34,37,2,16,-36,20,30,-45,86,41,-103,42
33,35,2,15,-34,19,30,-47,86,41,-104,41
30,34,3,13,-32,19,30,-49,85,41,-104,40
27,33,6,10,-30,20,31,-50,86,42,-103,41
24,33,9,7,-29,21,32,-51,87,44,-102,42
21,34,13,3,-28,24,33,-51,88,46,-101,44
19,35,17,1,-28,26,34,-52,89,48,-99,46
18,36,19,-1,-28,27,34,-53,90,50,-98,47
18,37,19,-1,-29,28,33,-54,90,51,-97,47
20,38,19,0,-30,28,31,-56,89,51,-98,46
22,39,17,2,-32,27,28,-59,87,50,-99,44
25,40,14,5,-34,26,25,-61,85,48,-100,42
28,40,12,8,-35,26,22,-63,82,45,-102,39
30,41,10,10,-37,25,20,-66,79,42,-104,37
33,42,8,12,-38,25,18,-68,77,40,-106,35
34,42,7,13,-39,25,17,-70,76,38,-107,34
34,43,7,13,-40,25,17,-72,75,37,-107,33
34,44,9,12,-40,26,18,-73,74,37,-107,32
32,45,12,10,-40,28,19,-74,75,37,-105,32
31,47,16,7,-40,31,19,-73,75,37,-103,32
30,50,19,5,-42,34,20,-71,76,38,-100,33
32,54,21,5,-44,37,20,-68,77,40,-98,34
35,58,22,6,-48,40,20,-65,77,41,-96,35
40,62,21,9,-53,41,20,-63,77,42,-95,36
46,66,20,13,-57,42,20,-61,77,42,-94,36
51,69,18,17,-61,43,20,-60,76,41,-93,36
55,71,16,20,-64,43,20,-59,76,40,-93,35
58,73,15,22,-67,44,20,-58,76,38,-93,34
60,75,15,23,-69,45,21,-56,76,37,-92,34
60,77,17,22,-70,47,21,-55,76,37,-91,34
60,80,19,21,-71,50,21,-53,77,37,-90,34
59,82,23,18,-71,53,21,-50,77,38,-88,35
57,85,29,14,-72,57,22,-48,77,40,-86,36
55,89,34,10,-73,62,23,-46,78,43,-85,37
53,93,40,7,-74,67,24,-43,79,45,-83,39
52,98,46,3,-76,72,25,-39,80,48,-81,41
52,103,51,0,-78,78,26,-35,81,51,-80,44
51,108,57,-3,-80,83,26,-32,82,53,-78,47
51,114,63,-6,-83,88,26,-29,83,56,-76,50
51,119,68,-9,-85,94,25,-27,84,59,-74,53
51,124,73,-11,-88,99,23,-28,84,62,-72,56
52,129,77,-12,-91,103,20,-30,84,64,-70,57
54,134,79,-12,-95,106,15,-33,82,66,-68,58
57,138,80,-11,-98,108,10,-37,80,66,-66,57
61,141,80,-9,-101,110,4,-42,76,65,-64,55
64,143,79,-7,-104,110,-3,-47,72,63,-63,54
67,146,78,-5,-107,111,-9,-52,68,60,-61,52
70,148,78,-4,-110,112,-15,-56,64,58,-59,51
72,151,78,-3,-112,114,-21,-59,61,56,-56,51
74,154,79,-2,-115,116,-25,-60,59,54,-52,53
76,157,81,-3,-118,119,-28,-60,58,54,-47,55
77,161,83,-3,-120,121,-30,-58,58,54,-41,59
78,163,84,-3,-122,124,-30,-55,59,55,-35,62
79,165,86,-4,-123,125,-30,-51,60,56,-29,66
79,164,86,-4,-123,125,-30,-47,61,57,-23,68
77,161,85,-5,-121,123,-29,-43,62,58,-18,70
74,157,83,-5,-117,120,-28,-40,61,57,-14,71
71,150,80,-6,-112,115,-27,-37,60,56,-12,70
67,142,76,-5,-106,109,-25,-35,57,54,-10,68
63,132,69,-4,-99,101,-24,-35,54,50,-10,65
61,121,61,-1,-92,91,-22,-35,50,46,-11,60
59,110,51,3,-86,81,-21,-37,45,40,-13,54
58,99,42,7,-79,70,-20,-39,39,33,-15,47
56,89,33,11,-73,61,-19,-41,34,26,-18,40
54,80,26,14,-68,52,-17,-42,28,19,-21,33
52,72,20,16,-62,45,-16,-42,23,13,-23,25
48,64,15,16,-57,39,-15,-42,18,6,-25,18
44,56,12,16,-51,34,-14,-42,13,0,-27,10
40,50,9,16,-46,29,-14,-42,8,-5,-29,3
36,44,7,15,-41,25,-14,-41,5,-9,-30,-2
33,39,6,14,-37,23,-13,-40,2,-12,-31,-6
30,36,6,12,-34,21,-12,-39,0,-13,-31,-8
28,35,6,11,-32,21,-11,-37,0,-13,-30,-8
26,34,7,9,-31,21,-10,-34,0,-12,-29,-7
25,34,8,8,-30,21,-9,-32,0,-11,-26,-5
24,33,8,8,-29,20,-8,-30,1,-9,-24,-3
23,31,7,8,-28,19,-6,-28,1,-7,-21,-2
22,28,6,8,-25,17,-5,-27,2,-5,-18,-1
20,24,4,8,-23,14,-4,-25,1,-4,-15,-1
18,20,1,8,-20,11,-3,-23,1,-3,-12,-1
16,16,0,8,-17,8,-3,-20,0,-3,-10,-1
13,12,-1,7,-14,6,-2,-16,0,-2,-8,-1
10,9,-1,6,-11,4,-2,-12,-1,-2,-6,-1
10,6,-3,7,-8,2,-1,-8,-1,-1,-2,-1
5,3,0,3,-3,2,-1,-4,-1,-1,-1,0
0,0,0,0,0,0,0,0,0,0,0,0
1,-1,-1,2,1,-2,3,4,2,1,1,1
6,0,-6,6,-2,-4,6,10,3,2,1,1
12,2,-10,11,-6,-5,13,19,6,3,0,0
20,4,-15,17,-11,-6,18,27,7,3,-1,0
21,10,-11,16,-14,-2,42,51,21,7,0,-3
16,9,-6,11,-12,0,62,75,40,16,5,-4
5,3,-4,4,-4,-1,80,100,65,30,11,-4
13,6,-7,11,-9,-1,82,117,88,47,25,6
33,15,-17,27,-24,-2,74,126,112,68,35,25
56,34,-23,41,-44,4,63,138,145,104,71,56
86,59,-26,56,-72,16,47,147,186,150,120,101
127,96,-31,80,-112,31,18,138,229,206,181,157
183,143,-39,112,-162,51,-24,115,274,272,252,223
235,199,-36,137,-216,81,-92,76,312,346,336,304
287,262,-26,156,-274,117,-178,28,346,429,431,395
347,336,-12,179,-341,162,-268,-15,390,520,534,498
409,414,6,202,-412,210,-359,-55,441,619,645,608
466,488,22,223,-476,254,-454,-109,467,704,736,695
517,556,40,240,-536,297,-550,-174,480,781,815,767
544,576,33,257,-560,303,-623,-237,461,811,848,794
559,569,9,276,-564,288,-684,-295,422,808,850,790
554,536,-18,287,-544,258,-723,-364,343,750,799,741
537,484,-54,296,-511,215,-746,-439,232,648,707,657
487,434,-54,271,-460,189,-755,-517,89,503,572,537
411,376,-36,225,-393,170,-747,-596,-82,320,400,386
339,320,-17,178,-329,150,-705,-630,-205,153,251,259
259,264,6,127,-260,134,-639,-636,-301,-10,111,143
191,209,18,87,-200,113,-567,-608,-352,-122,11,57
129,162,34,48,-145,97,-493,-557,-372,-193,-58,-6
79,129,51,15,-103,89,-417,-495,-365,-232,-100,-47
41,112,72,-16,-76,92,-343,-418,-329,-235,-112,-62
18,106,90,-35,-62,98,-274,-339,-275,-212,-100,-57
13,108,96,-41,-61,101,-209,-253,-203,-164,-65,-33
16,108,93,-38,-61,100,-157,-175,-130,-108,-23,-2
23,101,77,-27,-62,89,-113,-107,-66,-52,17,25
37,84,47,-4,-60,65,-87,-58,-21,-8,48,38
47,58,10,21,-52,32,-72,-32,-1,18,63,34
50,34,-16,34,-42,8,-56,-21,1,20,60,22
46,19,-27,36,-30,-5,-42,-22,-9,1,43,6
37,11,-26,31,-23,-8,-30,-24,-24,-18,26,-11
28,15,-14,22,-20,-1,-21,-22,-33,-31,16,-20
18,18,-1,10,-17,8,-14,-16,-34,-43,8,-21
13,23,11,1,-17,17,-9,-3,-25,-45,7,-14
19,27,7,6,-23,17,-2,13,2,-15,33,4
19,26,7,6,-23,16,4,23,14,-4,42,11
19,24,4,7,-22,14,8,30,23,7,51,17
19,19,0,10,-20,9,12,33,28,14,57,20
18,15,-3,11,-17,5,13,33,27,15,57,19
17,12,-7,12,-15,2,13,30,23,13,56,17
19,9,-11,15,-14,-2,11,28,18,9,52,12
21,7,-15,18,-15,-5,9,26,14,6,50,9
24,7,-17,20,-16,-6,9,26,13,5,49,6
26,7,-19,22,-17,-7,9,27,14,7,50,5
24,6,-19,21,-16,-7,11,30,18,11,54,5
22,3,-19,21,-13,-9,14,32,22,14,58,4
21,0,-22,21,-11,-12,16,34,23,16,60,1
20,-4,-25,23,-9,-15,18,34,23,16,60,-2
21,-5,-27,24,-9,-17,19,33,21,14,58,-5
21,-5,-28,25,-9,-17,20,31,18,12,56,-7
21,-4,-26,24,-9,-15,20,30,17,11,57,-7
19,-2,-22,21,-10,-12,19,30,18,13,59,-5
17,0,-18,17,-9,-9,18,31,22,17,64,0
16,3,-15,16,-10,-6,17,33,28,23,70,5
19,5,-15,17,-13,-5,16,35,34,29,75,10
25,8,-18,21,-17,-5,16,37,39,33,78,14
34,11,-24,29,-23,-7,15,38,41,35,78,16
42,13,-30,36,-28,-9,14,38,41,35,77,16
46,13,-34,39,-30,-11,14,38,39,33,74,14
47,13,-34,40,-31,-11,14,37,36,30,70,11
47,14,-33,39,-31,-10,15,35,34,27,67,6
47,17,-31,38,-33,-7,16,34,33,25,65,2
50,21,-30,40,-37,-5,17,34,32,23,64,0
54,26,-29,41,-42,-2,17,35,33,22,65,0
56,30,-27,41,-45,1,17,36,36,24,67,2
56,33,-24,40,-46,4,17,38,38,27,69,5
53,35,-19,35,-45,7,17,40,41,29,72,8
49,35,-15,31,-43,10,17,41,43,32,75,10
47,36,-12,29,-42,12,16,41,44,34,77,12
46,36,-10,27,-42,13,15,42,45,36,79,14
46,37,-10,27,-42,13,16,43,47,37,81,16
46,37,-10,28,-43,13,17,46,50,39,83,19
47,38,-10,28,-43,13,18,49,54,42,86,22
49,38,-11,30,-44,12,19,52,57,46,89,25
54,38,-16,35,-47,10,18,54,60,50,92,26
60,39,-22,41,-50,8,17,55,62,54,94,25
67,39,-28,47,-54,5,18,57,63,56,95,24
71,39,-32,52,-56,3,19,58,64,58,95,23
73,40,-34,53,-57,2,21,61,65,59,95,22
73,40,-33,53,-57,3,23,62,66,59,94,22
71,41,-31,51,-57,4,22,64,65,58,92,23
70,43,-28,49,-57,6,20,65,65,58,91,24
68,44,-25,47,-57,8,17,67,65,58,90,27
68,46,-22,45,-58,11,15,69,67,59,91,31
69,49,-20,45,-60,13,14,71,71,62,93,35
72,53,-18,45,-63,16,15,74,76,65,97,39
77,59,-18,48,-69,19,17,78,83,70,102,45
81,64,-17,49,-73,22,20,83,91,77,109,52
81,67,-14,48,-75,25,24,88,99,84,116,61
78,68,-9,44,-74,28,27,94,108,92,124,70
72,68,-4,38,-70,31,30,101,116,100,132,81
67,67,0,33,-67,32,32,107,124,107,138,91
64,65,2,31,-65,32,32,112,132,114,144,99
65,66,1,32,-66,32,31,117,138,120,149,106
69,68,-1,35,-69,33,29,120,142,125,153,110
75,72,-3,39,-74,34,26,122,146,130,157,113
82,78,-4,43,-81,36,22,124,150,134,161,116
89,84,-6,48,-87,39,19,127,155,138,164,117
95,89,-6,51,-92,41,17,131,160,144,168,120
99,94,-5,53,-98,44,16,136,165,149,173,122
103,101,-2,53,-103,49,15,140,170,154,177,124
106,108,2,52,-108,54,15,144,175,160,181,127
108,115,6,51,-112,59,17,148,180,165,186,130
109,120,10,50,-116,64,20,152,185,170,192,134
109,123,14,47,-117,68,24,157,192,176,198,139
109,127,18,45,-119,72,28,161,198,182,206,145
111,132,22,44,-122,77,30,164,205,188,212,152
115,139,24,45,-127,81,32,168,212,196,219,160
122,146,24,49,-134,85,33,171,219,204,227,167
131,153,22,55,-142,86,34,174,227,212,234,173
142,159,16,63,-151,86,35,178,234,221,241,177
155,164,9,73,-159,85,35,181,240,228,247,179
169,169,-1,85,-169,83,32,182,244,234,250,178
183,175,-9,96,-179,82,29,182,247,238,252,178
196,181,-15,106,-188,82,27,182,249,242,254,178
206,188,-19,113,-197,84,27,183,252,247,256,180
212,194,-19,116,-204,87,28,184,255,252,260,183
216,200,-16,116,-208,91,30,186,258,258,265,187
215,205,-10,113,-211,97,32,187,261,264,270,191
212,210,-2,107,-212,103,33,189,264,270,276,196
207,214,7,99,-211,110,35,190,267,276,282,200
200,216,17,91,-208,116,36,190,269,281,286,204
192,217,25,83,-204,120,38,190,269,284,289,206
182,216,34,74,-200,124,39,189,267,283,289,207
172,214,42,65,-194,127,40,188,263,280,286,207
162,212,50,56,-187,130,41,187,258,275,282,205
151,210,58,46,-181,133,40,186,253,270,278,203
144,207,62,41,-176,134,38,182,246,264,272,199
141,204,61,40,-173,132,35,177,239,255,264,192
143,199,55,43,-172,127,33,169,229,244,253,182
148,193,44,52,-171,118,31,158,216,229,239,168
155,187,31,62,-172,109,31,146,202,213,224,153
161,181,21,70,-172,101,31,134,187,195,208,138
163,176,13,75,-170,94,32,122,172,178,192,123
159,169,11,74,-165,90,34,111,159,163,177,110
150,161,11,70,-156,86,36,101,146,149,163,98
138,152,14,62,-145,82,38,90,134,137,151,87
124,142,18,52,-133,79,39,80,123,126,140,78
109,133,24,42,-121,78,40,73,113,117,131,72
93,125,31,31,-109,77,40,68,106,110,124,68
79,118,38,20,-98,77,39,66,102,106,121,67
65,111,45,10,-89,78,39,65,99,104,120,68
54,105,50,2,-80,77,38,65,97,102,118,69
44,98,52,-4,-72,75,37,64,94,100,117,69
36,90,53,-9,-63,71,37,63,91,96,114,68
30,81,50,-10,-56,65,35,62,86,91,110,65
30,74,44,-8,-52,58,32,59,80,84,105,61
34,67,34,-1,-51,50,27,55,72,75,98,55
42,64,22,10,-54,42,22,50,64,66,90,49
52,61,10,20,-57,35,18,45,56,57,81,42
60,60,0,30,-61,30,16,41,48,48,73,36
66,60,-6,36,-64,26,14,39,40,40,65,31
70,60,-10,40,-65,24,13,37,34,33,57,26
71,60,-11,41,-66,24,12,36,29,28,52,23
72,62,-10,41,-67,25,11,35,26,25,49,21
71,64,-8,39,-68,27,11,35,26,24,48,21
70,66,-4,36,-68,30,12,35,26,24,49,21
66,68,1,32,-67,33,13,36,28,25,50,23
61,68,7,27,-65,37,14,37,30,26,52,24
55,68,13,21,-62,40,15,38,32,27,54,26
48,67,20,14,-58,43,16,38,33,28,55,28
41,66,25,8,-54,45,16,37,34,27,56,29
35,64,29,3,-50,46,16,36,34,27,56,29
31,62,31,0,-47,46,14,34,32,25,55,29
28,60,31,-1,-45,45,12,31,30,23,53,28
28,58,30,-1,-44,43,9,28,27,20,51,26
30,57,27,2,-45,41,6,25,24,17,48,23
35,57,22,6,-47,39,3,21,21,14,45,20
42,58,16,13,-51,36,0,18,18,10,41,16
52,59,8,22,-56,33,-2,15,14,6,37,11
63,62,-1,32,-63,30,-4,13,10,2,33,6
74,64,-10,42,-70,26,-6,11,7,-2,29,2
84,66,-17,50,-75,24,-7,9,4,-5,26,-2
90,68,-21,56,-79,22,-8,9,2,-7,23,-4
92,69,-23,58,-81,22,-8,9,1,-8,21,-5
91,69,-21,57,-80,23,-8,10,1,-8,20,-5
87,69,-18,53,-78,25,-7,12,2,-6,20,-3
80,68,-13,47,-75,27,-6,15,4,-3,22,0
73,67,-7,40,-70,29,-4,18,7,1,24,3
65,65,-1,33,-66,31,-3,20,11,6,27,6
57,63,4,26,-61,33,-2,23,16,11,31,9
51,61,9,21,-57,34,-1,25,21,15,34,12
47,59,11,18,-54,34,0,26,25,19,37,14
46,58,11,17,-53,34,0,28,28,21,39,16
47,57,10,19,-53,32,0,29,30,22,40,16
51,57,6,22,-55,30,0,30,30,22,40,15
56,58,1,27,-57,28,0,31,30,20,39,13
60,58,-3,32,-60,26,1,32,29,19,37,11
63,58,-5,34,-61,26,2,33,29,18,36,9
61,58,-3,33,-60,26,3,35,29,18,35,9
57,57,1,28,-58,29,6,37,30,19,36,10
49,57,8,20,-54,32,9,40,31,22,37,12
40,57,17,12,-50,36,13,44,34,25,40,16
32,58,26,3,-46,41,16,47,36,30,43,20
25,59,33,-4,-43,45,20,50,39,35,47,25
21,60,38,-8,-41,48,23,52,42,39,51,29
21,61,40,-10,-41,50,24,53,44,42,54,32
22,62,39,-9,-42,49,24,53,45,44,56,34
25,62,36,-6,-43,48,22,52,44,44,56,35
30,61,31,-1,-45,45,20,50,43,43,56,34
35,61,26,4,-47,42,17,47,40,41,54,32
41,60,20,10,-50,38,13,44,36,38,51,29
46,59,13,16,-53,35,10,41,32,34,48,24
51,59,8,22,-55,32,7,38,28,30,44,20
54,58,4,25,-56,30,4,36,25,27,41,15
55,57,2,27,-57,29,3,35,23,23,38,12
55,57,2,27,-57,29,2,34,22,21,36,10
54,57,3,26,-56,30,2,34,22,20,35,10
53,58,5,24,-56,31,3,35,23,20,35,11
52,59,6,23,-56,32,4,35,25,21,36,13
52,60,8,22,-57,33,6,36,28,23,37,15
52,62,9,22,-58,35,8,36,31,25,38,17
52,63,10,21,-58,36,9,37,33,27,40,19
52,65,12,20,-59,37,10,36,35,29,41,21
52,66,13,19,-59,38,9,36,37,31,42,22
51,67,15,18,-59,39,8,35,37,32,43,23
51,67,15,18,-60,40,7,33,37,32,43,24
52,67,14,19,-60,39,6,31,35,32,42,24
54,66,11,22,-61,37,4,29,33,31,40,22
58,64,5,26,-62,34,2,26,31,29,38,20
63,63,-1,32,-64,30,0,23,28,26,36,17
68,62,-7,37,-65,26,-2,20,25,23,33,14
72,60,-12,42,-66,23,-3,17,23,20,30,11
73,58,-16,44,-66,20,-5,14,21,17,27,8
73,56,-17,45,-64,18,-6,12,19,14,25,6
70,53,-17,43,-61,17,-7,11,17,12,23,4
65,51,-14,39,-58,17,-8,11,16,11,22,3
60,50,-10,34,-55,19,-8,11,16,10,21,3
54,50,-5,29,-52,21,-7,12,15,10,21,4
49,50,1,24,-50,24,-7,13,15,11,22,5
45,51,6,20,-49,27,-6,13,15,11,22,7
41,52,11,16,-48,31,-5,14,15,12,23,9
38,54,16,12,-47,34,-3,15,15,14,24,12
36,56,21,8,-47,38,-1,15,16,15,26,15
34,58,25,5,-47,41,1,16,16,17,27,17
34,61,28,4,-48,43,3,16,17,18,28,19
35,63,29,3,-50,45,4,16,17,18,29,20
37,65,29,4,-52,46,5,15,17,18,30,20
38,66,29,5,-53,46,6,15,16,17,30,20
38,67,30,5,-54,47,6,15,16,16,30,20
38,69,32,3,-54,49,7,15,16,16,30,21
36,71,35,1,-54,52,9,16,17,17,30,23
35,73,39,-2,-55,55,11,17,19,19,31,25
34,76,42,-4,-56,58,12,19,21,22,32,28
36,79,43,-4,-58,60,13,20,23,25,34,31
41,83,42,-1,-62,62,13,20,24,27,36,33
48,88,40,4,-68,63,12,20,24,29,38,34
55,93,37,9,-74,64,11,19,24,29,39,35
62,98,36,13,-80,66,10,19,24,30,40,35
66,102,36,15,-84,68,10,19,25,31,40,35
69,105,36,17,-87,70,10,19,26,31,40,35
72,108,37,17,-90,72,10,20,28,31,40,34
74,111,37,18,-92,73,11,20,29,31,40,33
76,113,38,19,-94,75,11,19,30,30,39,31
78,116,39,19,-97,77,10,19,31,30,39,30
79,120,41,19,-99,79,8,18,31,30,38,28
80,124,44,18,-102,82,5,16,31,29,38,28
81,128,47,17,-105,86,1,14,31,29,38,28
83,133,50,17,-109,89,-4,12,30,29,38,28
86,138,53,17,-113,93,-9,9,29,29,39,29
89,144,55,17,-117,98,-14,6,28,28,40,30
91,150,59,17,-121,102,-19,2,26,29,41,31
93,155,63,16,-125,107,-23,-1,25,30,42,33
94,161,67,14,-128,112,-27,-5,24,31,43,35
94,166,72,12,-131,117,-29,-8,23,33,44,38
95,170,76,10,-133,122,-31,-10,22,35,46,41
95,174,79,8,-134,125,-33,-12,21,37,47,44
95,176,81,7,-136,128,-34,-12,21,39,48,48
96,178,82,7,-137,129,-34,-12,21,40,50,51
97,178,81,8,-137,128,-35,-12,21,42,50,54
98,176,77,11,-137,126,-36,-11,20,43,51,56
100,172,72,15,-136,121,-37,-11,19,43,50,56
103,166,63,20,-135,114,-38,-11,16,41,49,55
105,159,54,26,-133,106,-39,-12,13,38,46,52
106,151,45,31,-129,98,-38,-13,9,34,42,47
104,142,38,33,-124,90,-37,-13,6,30,38,42
99,133,34,33,-116,83,-34,-14,4,26,34,37
91,123,32,30,-107,77,-30,-14,2,22,29,32
82,112,31,26,-98,71,-27,-15,1,19,25,27
73,102,30,22,-88,65,-24,-17,-1,15,21,22
64,92,28,18,-79,60,-23,-19,-2,11,17,18
56,83,27,15,-70,54,-23,-22,-4,7,13,13
50,75,25,13,-63,49,-24,-25,-5,3,9,10
45,67,22,11,-56,44,-26,-27,-7,-1,5,7
40,60,19,11,-50,38,-27,-29,-8,-4,2,4
37,53,15,11,-45,33,-27,-29,-10,-7,-2,3
35,46,11,13,-41,27,-27,-30,-11,-9,-5,1
34,40,6,14,-37,22,-26,-30,-12,-11,-7,0
33,34,1,16,-34,17,-26,-30,-14,-12,-10,-2
33,28,-4,19,-31,11,-25,-30,-16,-13,-12,-4
34,23,-10,22,-29,6,-24,-30,-19,-15,-14,-6
35,19,-15,25,-27,1,-23,-30,-22,-17,-16,-9
36,16,-19,27,-26,-2,-20,-29,-25,-19,-18,-11
35,14,-20,28,-25,-4,-17,-28,-27,-20,-19,-11
32,13,-18,25,-23,-3,-14,-26,-27,-20,-19,-11
27,13,-14,20,-20,-1,-10,-23,-26,-19,-18,-10
20,12,-8,13,-16,2,-7,-20,-24,-17,-16,-8
11,11,-1,6,-11,4,-4,-16,-21,-14,-13,-6
4,9,4,0,-7,6,-2,-13,-18,-11,-11,-4
-1,7,7,-4,-4,6,-1,-10,-14,-8,-8,-2
-3,5,7,-5,-2,5,0,-7,-11,-5,-6,-2
-11,4,16,-13,5,9,3,-3,-7,0,-2,2
-6,2,10,-7,2,5,1,-1,-3,0,0,1
0,0,0,0,0,0,0,0,0,0,0,0
6,-4,-9,8,0,-6,3,6,7,1,2,-1
13,-9,-21,18,-1,-15,10,14,13,1,2,-4
23,-12,-34,29,-4,-23,21,28,22,2,3,-7
35,-17,-50,44,-8,-33,37,41,30,2,2,-13
49,-14,-61,55,-16,-38,50,67,49,11,9,-9
54,-8,-62,59,-23,-35,63,96,72,26,23,2
71,11,-57,66,-41,-23,68,119,101,53,47,27
94,42,-50,73,-68,-4,67,137,135,88,80,60
105,64,-42,75,-84,11,53,144,171,137,125,103
119,82,-35,77,-100,23,27,147,206,194,179,154
156,116,-38,98,-136,38,-21,123,241,252,242,214
211,162,-46,130,-186,56,-82,84,275,314,312,282
272,222,-49,161,-247,86,-164,36,310,387,391,368
334,289,-44,190,-311,121,-256,-19,348,469,479,463
402,369,-32,218,-385,168,-354,-76,383,554,570,557
470,457,-12,242,-463,222,-453,-136,419,642,672,652
527,523,-2,266,-523,260,-544,-197,438,713,753,726
575,579,4,287,-576,290,-631,-260,447,772,820,785
595,583,-11,304,-588,284,-693,-322,413,773,827,790
599,556,-42,322,-577,255,-740,-382,349,737,791,762
581,517,-62,322,-549,226,-773,-455,251,657,718,694
547,466,-80,314,-506,192,-795,-535,126,540,612,593
483,412,-68,276,-447,172,-787,-601,-18,383,471,467
390,347,-41,217,-369,153,-755,-659,-180,191,303,317
314,287,-26,172,-300,131,-700,-666,-283,45,167,201
243,232,-11,128,-237,110,-627,-642,-349,-77,52,107
183,180,-2,94,-181,88,-554,-602,-385,-163,-37,28
134,142,8,64,-139,75,-479,-544,-390,-219,-98,-31
98,121,23,38,-110,71,-402,-478,-373,-252,-135,-70
79,116,37,23,-98,75,-323,-399,-329,-255,-146,-84
43,114,74,-15,-79,94,-248,-309,-259,-215,-120,-63
-2,113,117,-59,-55,113,-177,-211,-170,-145,-69,-22
-16,109,126,-71,-46,116,-129,-131,-92,-79,-22,14
-18,96,115,-66,-38,105,-94,-70,-33,-23,15,40
-10,76,87,-48,-33,81,-69,-36,1,11,35,51
-4,52,57,-28,-24,53,-53,-24,13,21,39,49
-6,29,35,-20,-10,30,-41,-21,6,15,27,37
-11,11,23,-17,1,15,-34,-25,-9,0,8,19
-17,0,19,-18,10,8,-29,-26,-24,-17,-10,7
-15,-1,16,-15,8,7,-26,-21,-34,-32,-24,-1
14,6,-7,10,-10,-2,-33,-15,-17,-19,-9,2
29,8,-21,25,-19,-8,-32,-8,-11,-15,-6,1
43,10,-33,38,-27,-13,-29,1,-3,-9,-1,1
52,10,-42,47,-32,-17,-24,8,5,-2,5,1
51,8,-44,47,-30,-19,-17,13,8,1,6,0
45,5,-41,43,-26,-19,-10,16,8,1,5,-2
38,2,-36,37,-21,-18,-5,15,6,-3,2,-6
32,1,-31,31,-17,-16,0,14,4,-8,-2,-9
31,3,-28,29,-17,-14,4,12,2,-12,-4,-11
34,5,-28,30,-20,-12,7,11,2,-13,-5,-12
38,8,-30,33,-23,-12,8,11,4,-12,-5,-12
44,9,-34,39,-27,-14,8,10,6,-10,-5,-12
49,8,-41,45,-29,-18,7,9,8,-8,-7,-13
53,6,-47,50,-30,-22,6,7,8,-7,-9,-14
56,4,-52,54,-31,-25,7,6,7,-7,-11,-15
56,2,-54,55,-30,-27,9,6,5,-7,-13,-16
55,3,-52,53,-30,-26,11,8,3,-6,-14,-13
51,4,-47,49,-29,-23,14,11,2,-4,-13,-9
47,5,-42,45,-27,-20,17,14,3,-1,-10,-4
44,7,-37,41,-26,-17,18,18,7,4,-6,1
43,8,-35,39,-26,-15,18,23,12,9,0,5
43,8,-35,39,-26,-15,18,27,18,15,7,9
45,7,-37,41,-27,-16,17,31,22,20,12,11
45,6,-39,42,-26,-18,16,33,26,24,16,12
43,3,-39,41,-24,-19,14,34,29,26,18,12
38,0,-37,37,-20,-19,14,35,31,26,19,11
29,-2,-31,30,-14,-17,14,35,33,25,20,10
20,-3,-22,21,-10,-13,16,36,36,24,20,10
11,-2,-11,11,-6,-7,19,39,40,24,22,11
2,1,1,0,-3,0,21,43,45,27,24,14
-8,3,13,-10,1,7,22,48,51,31,28,18
-17,4,22,-19,5,12,23,53,56,36,32,23
-23,3,26,-24,8,14,24,58,60,41,36,26
-24,1,26,-24,9,13,24,61,63,45,39,28
-18,1,19,-18,6,10,23,62,65,48,40,30
-9,2,11,-9,2,6,21,62,65,49,40,30
0,3,3,-1,-3,3,20,60,64,48,39,28
8,5,-3,6,-8,1,19,58,62,47,36,26
13,8,-5,9,-11,1,19,56,61,45,34,23
17,11,-5,12,-15,2,19,55,60,43,32,21
21,15,-5,14,-19,4,18,55,58,41,30,20
27,19,-7,17,-24,5,16,56,57,40,29,20
36,23,-11,24,-30,5,14,57,56,39,29,20
45,27,-17,31,-37,4,13,59,57,40,31,22
54,30,-23,38,-43,3,12,62,60,42,34,26
62,32,-28,45,-48,1,11,64,63,45,38,30
67,33,-33,50,-51,-1,8,64,65,47,42,33
72,33,-38,56,-54,-4,5,64,67,50,46,36
78,32,-45,62,-56,-7,3,63,68,51,48,38
84,32,-51,68,-60,-10,1,62,69,52,49,40
91,34,-56,74,-64,-12,1,62,70,52,49,42
96,36,-59,77,-67,-12,2,63,73,52,49,44
98,40,-58,78,-70,-10,5,65,77,53,50,48
98,44,-53,75,-71,-5,8,69,84,57,53,53
94,48,-46,69,-71,0,12,75,91,63,59,60
89,51,-38,63,-71,6,15,82,98,71,66,67
85,54,-30,57,-70,11,16,89,105,80,74,74
82,56,-26,54,-70,14,16,96,111,89,82,80
83,56,-26,54,-70,14,15,102,116,97,89,86
86,56,-29,57,-72,13,15,107,122,104,95,91
91,57,-33,61,-75,11,15,112,128,111,100,96
95,58,-36,65,-78,10,15,116,135,117,105,100
98,61,-37,67,-80,11,16,120,142,124,110,104
100,64,-35,67,-83,13,17,124,149,130,115,108
102,69,-33,67,-86,17,18,129,155,136,119,111
104,74,-30,67,-89,21,19,134,161,141,123,114
106,79,-28,67,-93,24,20,140,166,145,126,115
108,83,-26,67,-96,27,22,146,171,149,128,117
108,86,-23,65,-97,30,25,152,178,155,132,120
107,89,-18,63,-99,35,27,159,185,161,138,125
107,94,-12,59,-101,40,29,166,193,170,146,132
108,100,-7,57,-105,46,29,172,202,179,156,140
112,108,-3,58,-111,52,29,178,211,188,166,149
118,115,-2,60,-118,56,28,183,219,198,176,157
125,121,-3,64,-124,58,26,187,227,207,185,164
132,125,-6,69,-130,59,23,189,234,215,193,171
139,129,-9,74,-135,60,19,191,240,222,200,176
146,134,-12,79,-141,60,16,192,246,228,206,180
153,138,-14,83,-147,61,13,193,252,234,213,184
159,143,-15,87,-152,63,10,194,257,239,218,187
163,148,-14,88,-156,66,7,195,260,243,222,190
164,152,-12,88,-159,69,5,197,263,248,227,193
162,156,-6,84,-160,74,5,200,267,253,232,198
157,159,2,77,-159,80,7,205,272,259,238,204
148,162,14,67,-156,88,11,210,279,266,244,211
140,166,26,56,-154,95,14,215,286,274,251,218
133,169,37,48,-152,102,14,218,291,282,257,223
131,173,43,43,-153,108,14,218,295,289,262,228
135,178,44,45,-158,111,13,217,296,293,266,231
142,183,42,50,-164,112,12,215,294,294,266,233
148,186,39,54,-169,113,13,211,289,293,265,232
154,188,36,59,-172,112,14,206,283,289,261,229
156,188,33,61,-173,110,12,198,275,284,255,224
158,186,29,64,-173,107,10,189,265,276,248,217
161,184,24,68,-174,104,7,179,255,266,238,209
164,182,18,73,-174,100,5,169,243,256,227,200
169,179,11,79,-175,95,4,159,230,245,214,190
172,177,5,83,-175,91,5,150,217,233,201,179
170,173,3,84,-172,87,9,142,204,221,188,169
164,167,3,81,-166,85,14,134,192,208,176,158
153,160,8,73,-157,84,20,126,181,194,164,148
139,151,13,63,-146,82,26,118,171,180,152,137
126,142,17,55,-135,79,28,109,160,165,140,126
114,132,19,48,-124,75,29,100,149,151,129,116
104,122,19,42,-114,70,28,91,138,138,118,107
95,113,19,37,-104,66,27,84,128,127,108,100
85,104,20,32,-95,62,26,78,119,119,101,95
75,95,21,26,-86,58,25,73,111,113,95,92
65,86,22,21,-77,54,24,69,104,108,91,88
56,77,22,17,-68,49,21,65,97,103,86,84
49,69,20,14,-61,44,18,61,89,98,81,79
45,62,18,13,-55,40,15,58,82,92,75,73
43,58,15,13,-52,36,13,56,75,86,70,67
42,56,13,14,-50,34,12,54,70,81,65,62
43,55,13,14,-50,34,12,53,65,75,61,58
42,55,13,14,-49,34,13,52,62,69,57,54
42,55,14,14,-49,34,14,50,58,63,53,50
41,54,13,14,-48,34,15,47,55,56,48,45
42,51,10,16,-48,31,15,43,50,48,42,40
43,49,7,18,-47,28,13,37,44,41,37,34
45,48,3,21,-47,26,10,31,39,33,31,29
47,47,1,23,-48,24,6,26,34,27,27,24
47,47,2,23,-48,24,4,23,30,23,24,22
45,48,4,21,-47,25,3,21,28,20,23,20
42,48,7,17,-46,27,3,21,28,19,23,20
37,48,13,12,-43,30,5,22,28,19,24,22
30,48,19,6,-40,33,7,24,30,20,26,24
23,48,26,-1,-37,36,10,27,33,23,28,27
16,48,32,-7,-33,39,13,29,36,26,31,30
12,48,36,-11,-31,41,15,31,39,29,33,33
11,47,37,-13,-30,41,15,32,41,32,34,35
12,47,36,-12,-30,40,15,32,42,34,35,36
14,46,33,-9,-31,38,15,31,43,36,35,37
18,45,28,-5,-32,36,14,30,43,36,34,37
22,45,23,-1,-34,33,13,29,42,36,33,37
27,44,18,4,-36,30,11,28,41,36,32,36
31,44,13,9,-38,28,10,27,39,36,30,35
35,43,9,13,-40,26,9,26,37,36,29,34
37,43,6,15,-41,25,9,26,36,35,28,33
39,43,5,17,-42,24,10,25,35,35,27,33
39,44,6,16,-42,25,11,26,35,35,27,34
38,45,8,14,-42,26,13,27,36,35,27,36
36,46,10,12,-42,28,15,28,38,36,28,38
35,47,12,11,-42,29,16,29,40,37,29,39
36,48,12,11,-43,30,15,29,41,37,30,40
38,49,11,13,-44,29,14,29,42,37,31,40
41,49,8,16,-46,28,11,28,42,37,32,39
45,50,5,20,-48,27,8,26,42,35,32,38
48,50,2,23,-50,25,6,25,42,33,31,36
51,50,0,25,-52,25,3,24,41,31,31,35
52,51,-1,26,-53,24,1,25,40,29,30,33
52,51,0,25,-52,25,0,25,39,28,29,32
50,50,2,23,-51,26,-1,27,38,27,28,31
46,49,4,20,-49,26,-1,28,37,26,27,30
41,48,8,16,-46,27,-1,29,36,26,27,29
36,47,11,12,-43,28,-1,30,36,27,27,29
31,45,15,7,-39,30,0,31,37,28,27,29
25,44,19,3,-36,31,0,32,38,30,28,30
20,42,23,-2,-32,32,1,33,39,32,30,31
16,40,26,-5,-29,33,2,35,41,35,31,33
13,38,27,-7,-27,32,3,37,42,37,33,34
12,36,26,-7,-25,30,4,39,43,39,35,36
13,34,23,-5,-25,28,4,41,44,40,36,36
16,33,18,-1,-26,25,4,42,44,40,37,36
21,33,13,4,-28,22,4,43,44,40,38,36
26,33,8,9,-31,20,3,43,44,39,38,35
32,35,4,13,-35,19,3,42,44,38,38,34
36,37,2,16,-38,20,3,42,45,37,37,34
39,39,2,18,-41,21,3,42,46,36,37,34
40,41,3,18,-42,22,2,41,47,36,36,34
39,42,4,17,-42,23,2,41,48,36,36,34
38,42,5,16,-42,23,1,40,48,35,35,33
37,42,6,15,-41,23,0,39,47,35,34,32
36,41,6,14,-40,23,-1,38,46,34,33,31
35,41,7,13,-40,24,-1,37,45,33,32,30
34,42,9,12,-39,25,-1,36,45,33,32,30
32,42,11,10,-39,26,0,36,45,33,32,31
31,43,13,8,-38,28,2,37,46,33,33,33
28,44,16,6,-37,29,3,38,47,34,34,34
26,43,18,4,-36,30,4,39,48,35,35,35
23,41,19,2,-34,30,4,39,49,36,36,36
21,39,19,1,-32,29,4,39,50,36,37,36
20,37,18,1,-30,27,3,39,49,36,37,35
20,35,16,2,-29,26,3,38,49,36,37,35
21,34,14,3,-28,24,2,38,48,36,37,34
22,32,11,5,-28,22,1,37,47,35,36,34
23,31,9,6,-28,20,1,36,46,34,36,33
24,30,6,8,-28,18,0,35,44,33,36,33
26,29,3,11,-28,16,0,34,42,32,36,32
30,29,-1,14,-30,14,0,33,40,31,35,31
33,30,-4,18,-32,13,0,32,38,31,36,31
37,32,-6,21,-35,13,0,31,36,30,36,32
40,34,-7,23,-37,13,0,29,35,30,36,33
42,35,-7,24,-39,14,0,28,34,30,36,34
42,36,-6,24,-39,15,-1,27,34,30,36,34
41,36,-5,23,-39,15,-2,27,33,30,36,35
40,35,-5,22,-38,15,-3,26,32,30,36,34
38,34,-4,21,-37,14,-3,26,31,29,35,33
37,32,-4,20,-35,13,-3,26,30,28,34,31
35,31,-3,19,-34,13,-2,25,29,27,32,30
32,30,-1,16,-32,13,0,25,28,27,31,28
27,29,3,12,-29,15,3,25,28,26,30,27
22,29,8,7,-26,18,6,26,28,26,30,27
17,29,14,1,-24,21,9,27,30,28,30,28
13,30,19,-3,-23,24,12,28,31,29,31,29
11,32,23,-6,-22,27,13,29,32,31,33,31
11,34,24,-7,-24,29,13,29,32,33,34,33
14,37,25,-6,-26,31,12,28,32,35,36,35
17,40,24,-4,-29,32,10,27,32,36,38,36
21,43,23,-1,-32,33,7,27,32,37,40,38
25,46,23,1,-36,35,5,27,33,39,42,39
29,51,24,3,-40,38,3,28,35,40,44,41
32,56,25,4,-45,41,2,29,37,42,46,42
35,61,28,4,-49,45,2,31,39,44,48,43
37,66,31,3,-53,48,3,33,41,46,50,44
38,71,34,2,-56,52,4,35,43,47,51,45
38,75,38,0,-58,56,6,37,44,48,52,45
37,78,42,-2,-59,59,8,39,46,48,53,45
35,80,47,-6,-59,63,11,41,47,49,54,46
31,82,53,-11,-58,67,14,44,49,50,54,46
25,84,61,-18,-56,72,17,47,51,52,56,48
19,86,69,-25,-54,77,19,50,53,55,57,50
14,89,77,-32,-52,82,21,53,54,58,59,53
10,92,83,-37,-53,88,22,54,56,61,61,56
10,97,87,-39,-55,92,20,55,57,63,62,59
13,102,89,-39,-59,96,17,53,57,66,64,61
19,107,89,-36,-65,99,13,51,57,67,65,64
27,113,86,-30,-72,100,6,47,56,68,66,65
37,118,82,-23,-80,101,-1,43,55,69,67,67
48,124,77,-15,-88,101,-9,39,54,68,68,68
59,129,71,-7,-96,101,-17,34,52,68,67,69
69,134,66,0,-103,101,-26,29,50,66,67,69
77,138,62,7,-110,101,-33,25,47,64,65,68
84,143,59,12,-115,101,-40,22,44,62,64,67
90,146,57,16,-120,102,-46,18,41,60,62,66
94,150,56,18,-124,103,-51,15,39,58,60,65
97,153,56,20,-126,104,-55,13,36,56,59,64
100,155,56,21,-129,106,-58,11,35,54,58,63
102,157,56,22,-130,107,-59,9,33,52,57,63
103,158,56,22,-131,107,-59,8,32,50,56,62
102,158,56,22,-131,107,-58,7,31,49,55,62
100,155,56,21,-129,106,-55,7,30,47,54,62
95,151,56,18,-124,104,-51,8,30,46,54,62
87,143,57,14,-117,100,-46,10,30,46,53,62
77,133,57,9,-107,95,-41,12,30,45,52,61
65,121,57,3,-95,89,-36,14,30,44,51,60
53,108,56,-2,-82,83,-32,16,29,42,50,58
42,95,55,-7,-70,76,-28,18,29,40,48,55
33,84,52,-10,-60,69,-25,18,27,38,46,52
28,74,48,-10,-53,62,-22,18,25,35,43,48
27,66,42,-8,-48,55,-20,16,22,32,40,44
27,60,35,-5,-45,48,-19,13,18,28,37,39
27,54,29,-2,-42,42,-18,9,14,23,33,34
25,48,24,0,-38,36,-17,6,11,18,30,30
20,42,23,-2,-32,33,-17,4,9,15,27,27
13,35,24,-6,-25,30,-16,3,8,13,25,26
4,29,26,-12,-17,28,-15,4,9,12,24,25
-6,23,30,-19,-9,27,-14,4,10,13,24,25
-15,17,33,-25,-2,25,-13,5,11,14,24,25
-22,11,35,-29,4,23,-13,5,12,15,24,25
-26,6,33,-31,9,19,-14,3,12,16,23,23
-28,1,29,-30,12,15,-15,1,11,16,22,21
-26,-4,22,-25,13,9,-17,-2,9,14,20,17
-21,-7,14,-18,13,3,-17,-5,6,12,17,13
-14,-9,5,-11,10,-2,-17,-8,4,9,14,9
-7,-9,-2,-3,7,-6,-16,-9,1,6,11,5
-1,-8,-7,2,3,-8,-14,-9,-1,3,7,2
2,-6,-8,4,1,-7,-11,-8,-2,1,5,0
15,-4,-19,17,-5,-12,-9,-10,-6,-3,1,-5
11,-1,-11,12,-5,-6,-3,-5,-3,-2,0,-3
0,0,0,0,0,0,0,0,0,0,0,0
-11,0,11,-11,6,5,3,7,5,4,2,3
-18,-2,16,-17,10,7,4,14,11,8,5,7
-19,-4,16,-17,12,6,6,22,17,12,9,10
-18,-5,13,-16,12,4,12,34,26,18,14,14
-16,-8,9,-13,12,0,17,44,34,21,18,17
-16,-13,4,-11,14,-4,35,67,53,31,26,23
-16,-15,0,-9,15,-7,58,98,74,43,36,28
-5,-13,-6,0,9,-10,63,117,98,59,51,37
7,-6,-12,10,0,-8,60,131,125,78,70,48
26,8,-17,21,-17,-5,54,144,156,108,97,76
47,26,-20,33,-36,3,47,155,191,148,134,116
65,44,-19,43,-54,13,22,152,223,192,182,159
84,63,-19,53,-73,22,-16,135,254,241,239,205
131,112,-17,75,-121,47,-71,101,290,302,305,274
199,178,-19,108,-187,81,-139,51,324,372,382,358
267,251,-14,140,-258,118,-226,-2,364,456,468,452
337,331,-6,172,-333,162,-326,-61,405,547,563,555
419,412,-4,212,-415,204,-425,-125,438,636,656,650
505,501,-2,253,-501,249,-523,-190,467,724,764,743
566,551,-14,289,-557,267,-607,-260,463,776,822,795
610,576,-32,321,-592,272,-683,-332,441,805,857,820
622,566,-54,337,-593,255,-739,-405,379,776,835,800
611,527,-82,346,-569,222,-780,-482,287,706,772,743
569,488,-79,324,-527,205,-795,-555,169,593,669,652
501,437,-60,280,-469,188,-789,-630,26,443,531,531
419,379,-36,227,-399,171,-760,-673,-106,282,386,405
323,315,-6,165,-319,154,-710,-700,-237,106,229,270
249,251,5,122,-249,128,-641,-684,-315,-21,111,163
186,197,13,86,-190,106,-560,-639,-359,-117,20,79
129,153,26,51,-140,90,-477,-584,-369,-181,-50,16
82,124,45,19,-102,84,-393,-513,-345,-213,-90,-22
31,106,77,-24,-67,92,-313,-431,-301,-211,-98,-33
-16,93,112,-64,-37,103,-239,-338,-231,-178,-76,-20
-27,93,121,-74,-31,108,-183,-256,-158,-129,-43,-2
-14,93,109,-62,-38,100,-141,-186,-84,-73,-6,19
6,83,78,-36,-43,81,-112,-130,-26,-21,27,37
27,65,41,-6,-45,52,-88,-89,12,15,46,47
30,41,15,8,-34,27,-68,-70,27,30,53,46
19,19,2,9,-18,10,-53,-64,23,27,48,34
6,6,0,4,-5,3,-37,-65,13,14,31,20
-2,2,7,-4,1,3,-21,-65,5,0,15,10
-7,4,11,-9,2,7,-12,-63,2,-10,7,6
-4,8,14,-9,0,10,-5,-59,7,-10,7,12
1,6,6,-3,-3,6,-2,-46,32,12,25,21
2,4,3,-1,-3,4,4,-39,44,22,31,25
1,1,0,0,-1,1,9,-33,54,31,35,28
-1,-4,-2,0,2,-2,13,-29,61,37,36,29
-6,-10,-2,-3,8,-5,16,-29,62,37,33,26
-11,-14,-2,-5,12,-7,19,-31,59,33,27,23
-14,-17,-2,-6,15,-9,22,-34,56,27,22,19
-15,-18,-2,-7,16,-9,23,-37,53,21,17,17
-14,-17,-3,-6,15,-9,24,-38,52,18,15,16
-12,-16,-4,-4,14,-10,23,-39,54,18,16,16
-11,-17,-6,-3,14,-11,21,-39,58,20,18,18
-10,-19,-9,-1,14,-13,19,-39,61,23,20,19
-9,-22,-13,2,15,-17,17,-40,64,25,22,19
-7,-25,-17,5,16,-21,14,-41,65,25,22,18
-5,-27,-21,8,16,-24,13,-44,64,22,19,14
-3,-28,-24,10,16,-26,11,-47,63,18,15,10
-2,-28,-24,10,15,-26,10,-52,62,14,11,6
-2,-26,-22,9,14,-24,9,-55,62,11,7,2
-4,-24,-18,6,13,-21,8,-58,62,10,6,0
-6,-20,-12,2,13,-16,9,-58,65,12,7,0
-10,-16,-4,-4,12,-10,13,-56,70,16,10,4
-14,-12,4,-10,12,-5,18,-53,76,20,15,9
-18,-9,10,-15,13,0,23,-50,84,25,21,15
-20,-7,14,-18,13,3,27,-48,90,29,25,19
-22,-6,17,-20,13,5,28,-48,93,31,28,21
-22,-5,18,-21,13,6,26,-49,94,32,29,22
-21,-5,17,-20,12,6,25,-50,94,33,30,23
-18,-3,16,-18,10,6,22,-51,93,33,31,24
-14,-1,14,-15,7,6,20,-52,94,34,32,24
-7,1,10,-9,2,6,18,-53,95,35,33,25
1,5,5,-3,-3,5,15,-53,96,36,35,26
9,7,-1,4,-8,3,13,-54,97,38,36,27
15,8,-6,10,-12,1,12,-53,98,40,38,28
19,8,-10,14,-14,-1,12,-54,98,42,40,28
21,6,-13,16,-14,-3,13,-55,98,43,41,27
22,5,-16,18,-14,-5,14,-58,98,43,41,26
25,5,-18,20,-16,-6,16,-61,99,42,41,24
26,7,-18,21,-17,-6,18,-63,101,41,40,24
24,8,-15,19,-17,-3,22,-62,104,42,42,26
18,9,-8,13,-15,0,26,-60,108,44,44,29
9,10,1,4,-10,5,30,-58,114,48,48,33
-1,9,11,-6,-5,10,33,-56,120,52,51,38
-9,9,20,-15,-1,14,36,-55,126,57,54,41
-16,9,27,-22,3,18,36,-55,131,63,56,45
-22,8,31,-26,6,19,35,-54,137,68,58,48
-23,7,31,-27,8,19,32,-54,141,72,60,51
-19,7,27,-23,6,17,28,-55,145,75,61,53
-11,7,19,-15,2,13,24,-56,148,76,62,54
-1,9,11,-6,-4,10,19,-57,150,77,62,54
10,11,2,4,-11,6,16,-59,151,76,61,53
22,15,-6,14,-19,4,13,-61,151,75,60,52
34,19,-14,24,-27,2,10,-62,152,74,60,51
47,25,-21,34,-37,1,7,-64,154,72,60,52
59,31,-26,42,-45,2,5,-64,158,72,61,54
65,36,-28,46,-51,4,4,-63,164,74,64,58
68,40,-26,46,-54,7,4,-59,170,78,68,64
67,43,-22,44,-55,10,5,-52,176,84,74,69
65,46,-18,41,-56,14,7,-46,183,91,80,75
66,50,-15,40,-58,17,8,-40,190,97,86,80
67,52,-14,40,-60,19,9,-36,196,104,93,85
68,54,-14,40,-61,20,10,-33,203,111,99,90
70,55,-15,42,-63,20,10,-31,209,117,105,95
71,55,-16,43,-64,20,11,-28,215,124,112,100
74,57,-16,44,-66,21,14,-24,220,131,118,104
78,61,-16,47,-69,22,17,-21,226,137,126,109
81,64,-16,49,-73,24,21,-17,231,143,133,113
84,65,-17,50,-75,24,24,-15,236,149,139,117
84,66,-17,51,-75,24,26,-13,241,155,146,121
84,66,-16,50,-75,25,28,-11,246,161,151,126
83,68,-14,48,-76,27,29,-8,252,167,157,132
83,74,-7,45,-79,33,32,-4,260,175,164,139
84,83,1,41,-83,41,35,0,269,184,171,147
84,92,9,37,-88,51,37,4,280,194,177,154
85,103,18,33,-94,60,39,8,292,205,184,161
86,111,25,30,-98,68,40,12,303,215,190,167
86,118,31,26,-102,75,41,16,313,225,197,174
86,124,38,24,-105,81,41,20,324,235,204,180
88,129,42,23,-109,85,40,23,334,243,210,186
92,133,42,25,-113,87,37,24,341,250,215,190
99,135,38,30,-117,86,33,23,346,255,218,191
109,137,29,40,-124,83,28,21,348,257,220,191
121,139,19,51,-131,79,22,18,349,258,221,190
133,141,10,61,-138,75,16,14,351,259,221,190
142,145,4,69,-144,74,12,10,353,259,222,190
146,149,4,71,-149,77,9,8,357,261,225,192
147,155,9,69,-152,82,7,6,360,264,227,195
145,160,16,64,-154,88,8,6,363,267,231,198
141,164,23,59,-154,94,9,6,365,270,234,200
140,168,28,56,-155,99,10,5,364,271,234,201
140,172,32,53,-157,102,12,6,362,270,234,200
141,176,35,52,-159,105,14,9,357,268,234,200
143,179,37,53,-161,107,16,13,350,265,232,199
144,180,36,54,-163,107,19,20,340,261,231,197
146,179,33,56,-163,106,21,27,326,256,228,193
148,176,28,60,-163,102,23,36,309,249,222,188
149,172,22,63,-161,97,24,45,290,239,214,180
148,165,16,65,-157,90,24,53,269,229,203,171
146,156,11,67,-152,83,23,62,248,217,190,160
143,148,5,68,-146,76,22,68,226,203,176,148
138,139,1,68,-139,70,21,72,203,189,162,135
133,131,-1,67,-133,65,21,75,181,173,147,122
126,124,-2,63,-126,62,21,77,161,157,133,110
117,118,2,57,-119,60,22,80,145,143,121,100
107,114,8,49,-112,61,23,83,132,131,111,93
95,111,17,39,-104,64,25,87,123,121,104,88
82,109,29,26,-96,69,28,92,117,114,99,85
67,106,41,12,-87,74,33,98,111,110,97,83
49,102,54,-3,-76,78,37,103,106,108,95,83
32,97,66,-18,-64,81,40,107,100,106,94,83
13,89,76,-32,-51,82,42,110,94,104,93,82
-4,79,83,-44,-37,81,44,111,88,102,91,81
-16,68,84,-50,-26,76,43,111,81,98,88,78
-20,58,77,-49,-19,67,40,108,73,91,83,72
-15,49,64,-40,-17,56,34,103,63,82,75,63
-4,42,47,-26,-19,44,27,96,51,71,64,53
8,38,30,-11,-23,34,21,90,39,59,54,42
18,36,19,-1,-27,27,19,87,30,49,45,33
23,36,14,4,-30,25,19,87,23,41,39,27
22,37,16,3,-30,27,22,89,19,36,35,24
18,40,23,-2,-29,31,27,92,18,34,34,23
12,42,30,-9,-27,36,30,96,17,35,34,23
7,43,36,-14,-25,39,33,98,15,36,35,24
4,42,38,-16,-23,39,33,98,12,36,36,24
4,41,37,-17,-22,39,33,97,9,36,37,24
5,40,35,-15,-22,37,31,95,6,36,38,24
7,39,32,-12,-23,35,30,94,3,35,39,25
11,38,28,-9,-25,33,28,93,3,35,39,25
15,38,23,-4,-27,30,25,92,2,35,38,25
20,37,18,1,-29,27,23,91,1,35,37,24
24,36,12,6,-30,24,20,90,0,33,34,22
27,34,7,10,-31,20,17,89,-2,30,31,20
28,31,3,13,-30,17,15,88,-4,27,28,17
27,28,2,13,-28,15,15,87,-6,24,24,14
24,26,2,11,-25,13,15,87,-9,20,21,12
20,24,4,8,-22,14,16,87,-10,18,18,11
16,23,7,4,-20,15,19,88,-11,16,17,12
13,24,11,0,-18,17,22,89,-10,16,18,13
11,26,16,-3,-18,20,26,90,-7,17,20,16
10,30,20,-6,-20,24,30,91,-3,20,24,20
10,34,25,-8,-22,28,34,93,1,23,28,24
10,38,28,-10,-24,32,36,94,5,28,32,28
10,41,31,-11,-25,35,38,95,10,32,36,31
10,41,32,-11,-25,36,37,95,14,36,38,34
10,40,31,-11,-24,35,36,93,18,39,40,35
9,37,28,-10,-23,32,33,91,20,40,41,34
10,33,23,-7,-21,28,30,87,21,40,41,33
11,28,17,-3,-20,22,26,83,19,38,40,30
13,23,11,1,-18,17,23,79,17,36,38,27
14,19,5,4,-17,12,21,76,15,34,37,24
14,16,3,5,-15,9,21,74,12,32,36,22
12,14,4,4,-14,9,21,73,12,31,35,21
9,15,7,1,-13,11,23,73,12,32,35,21
7,18,12,-3,-13,15,25,74,13,34,36,22
6,22,17,-5,-15,19,27,74,15,37,36,22
7,26,20,-7,-18,23,28,74,17,40,37,23
9,30,21,-6,-21,26,28,73,19,43,38,23
13,33,20,-4,-24,27,28,71,20,44,38,23
17,35,18,-1,-27,26,26,68,20,43,38,22
21,35,14,3,-29,24,24,65,20,42,37,21
25,34,9,7,-30,22,22,63,19,39,35,20
28,33,5,11,-31,19,20,61,19,37,34,19
30,32,2,13,-31,17,18,60,19,35,32,18
30,32,2,14,-31,17,17,60,19,34,31,17
29,32,3,13,-30,17,18,60,21,34,31,18
26,32,6,10,-29,18,19,61,22,35,31,19
22,31,10,6,-27,20,20,62,24,36,31,20
18,31,14,2,-24,22,22,62,26,37,32,22
14,31,18,-2,-22,23,23,62,27,38,33,23
11,31,20,-5,-21,25,24,62,29,39,34,25
11,32,22,-6,-21,26,25,62,30,40,35,26
11,33,23,-6,-22,27,25,62,31,41,36,28
12,34,23,-5,-23,27,25,61,32,41,37,29
12,35,23,-5,-23,28,26,60,34,42,37,30
11,35,24,-7,-23,29,26,60,35,44,38,32
9,36,27,-9,-22,30,27,59,37,46,39,33
7,36,29,-11,-21,32,28,59,39,47,40,35
6,37,32,-13,-21,34,29,58,41,49,41,36
5,38,34,-15,-21,35,30,57,43,50,42,37
5,39,35,-15,-22,36,31,55,43,51,42,37
6,40,35,-15,-23,37,30,52,43,50,42,36
7,40,33,-13,-24,36,29,48,42,49,42,35
9,40,31,-11,-25,35,27,43,40,47,40,33
12,39,28,-8,-26,33,24,39,38,43,38,32
14,39,25,-5,-27,31,21,35,37,40,37,30
16,38,22,-3,-27,30,19,32,35,36,35,29
17,37,21,-2,-27,28,17,29,34,34,33,28
17,35,20,-1,-26,27,15,27,33,32,32,26
17,34,18,0,-25,26,15,26,32,31,30,25
17,33,17,0,-25,24,15,24,31,30,29,23
18,31,15,2,-24,23,16,23,30,29,28,22
18,30,13,3,-24,21,17,22,29,28,27,21
19,29,12,4,-24,20,20,22,29,27,26,20
18,29,12,3,-23,20,23,22,29,26,26,21
15,28,13,1,-22,20,26,22,30,26,26,22
12,28,17,-2,-20,22,29,23,31,26,26,23
7,27,21,-7,-17,23,31,24,32,27,27,25
2,27,25,-12,-15,25,31,24,34,29,28,25
-2,26,29,-15,-12,27,30,23,35,29,28,25
-5,26,31,-18,-11,28,28,21,36,29,27,24
-5,26,32,-18,-11,29,26,19,36,28,26,22
-4,27,32,-18,-12,30,24,16,36,26,25,20
-2,29,32,-17,-14,30,23,14,35,25,24,18
0,31,32,-16,-16,31,22,12,34,23,23,17
3,34,32,-15,-19,33,23,11,34,23,22,17
5,37,32,-14,-21,34,23,11,33,23,22,16
8,39,32,-12,-23,35,23,10,33,24,23,16
10,40,30,-10,-25,35,23,8,33,24,23,16
13,40,28,-7,-27,34,21,6,33,24,23,15
15,40,25,-5,-27,32,20,3,32,24,23,14
15,38,23,-3,-27,30,18,0,32,24,22,14
14,36,23,-4,-26,29,17,-3,32,24,22,14
12,35,24,-6,-24,28,16,-5,34,24,22,14
9,34,25,-8,-22,29,15,-7,36,25,22,14
8,35,27,-10,-22,30,14,-9,38,26,22,15
9,37,28,-10,-24,32,14,-11,40,28,22,15
12,41,30,-10,-27,35,14,-13,42,29,23,16
15,47,32,-10,-32,39,14,-15,44,30,24,17
17,53,36,-10,-36,44,15,-16,46,32,26,18
19,60,41,-12,-41,50,17,-16,48,34,28,20
20,67,46,-14,-45,56,18,-15,51,36,30,23
22,73,52,-15,-49,62,20,-14,53,39,33,25
24,80,56,-16,-53,67,22,-13,56,42,35,27
27,86,59,-16,-57,72,22,-12,58,44,37,29
31,91,61,-15,-62,75,22,-12,60,46,38,30
35,96,61,-13,-66,78,22,-12,62,47,39,30
39,100,61,-11,-70,80,22,-12,64,48,39,31
43,104,61,-9,-74,82,23,-12,66,49,40,32
45,107,62,-9,-76,84,24,-12,68,50,42,34
46,111,65,-10,-78,87,25,-12,71,52,44,37
44,114,70,-14,-79,92,25,-13,74,55,46,40
41,117,77,-19,-79,97,24,-15,76,57,49,43
37,120,84,-24,-78,102,22,-18,79,59,52,46
33,123,91,-30,-78,107,18,-21,81,62,55,49
31,126,96,-33,-79,111,13,-26,83,63,58,52
31,130,99,-34,-81,114,7,-31,84,64,60,54
34,133,100,-33,-84,116,0,-37,84,64,62,55
38,137,100,-31,-88,118,-7,-44,83,63,63,55
43,141,99,-28,-92,120,-13,-51,82,62,63,55
48,145,98,-25,-97,121,-19,-57,81,61,63,55
53,149,97,-22,-102,122,-23,-62,80,61,63,56
58,153,95,-18,-106,123,-26,-65,79,61,64,57
64,155,91,-14,-109,122,-28,-68,79,61,65,58
69,155,87,-9,-112,120,-30,-70,78,61,65,58
74,154,81,-4,-114,117,-30,-71,78,61,65,58
77,152,75,1,-114,113,-30,-72,76,60,65,58
79,148,69,5,-113,108,-28,-73,74,58,64,57
79,143,64,7,-111,103,-26,-72,72,56,63,55
76,137,61,7,-106,98,-24,-71,69,53,61,53
71,129,59,6,-100,93,-21,-68,65,50,58,51
64,120,57,4,-92,88,-18,-65,60,47,55,47
57,111,55,1,-84,82,-15,-61,55,43,50,43
50,102,53,-1,-76,77,-12,-56,50,39,45,39
43,93,51,-3,-68,71,-10,-51,44,34,39,34
35,83,49,-6,-59,66,-8,-46,39,30,33,30
27,74,47,-9,-51,60,-6,-41,33,25,28,26
19,64,46,-13,-42,54,-6,-36,29,21,23,22
11,55,44,-16,-33,49,-5,-33,25,18,18,19
6,46,40,-17,-26,43,-6,-30,21,14,14,15
2,38,36,-16,-20,36,-7,-28,17,10,11,11
2,31,30,-14,-16,30,-8,-27,13,5,7,7
3,26,23,-10,-14,24,-8,-26,9,1,4,3
4,22,18,-6,-12,19,-8,-24,5,-3,1,0
5,19,15,-4,-11,16,-8,-22,2,-7,-1,-2
4,17,13,-4,-10,14,-7,-19,-1,-9,-3,-3
3,15,13,-5,-8,14,-6,-16,-3,-10,-3,-3
1,14,14,-6,-7,13,-6,-13,-4,-11,-3,-2
0,13,14,-7,-6,13,-5,-10,-4,-10,-3,0
0,12,13,-7,-6,12,-5,-7,-4,-9,-2,1
1,11,11,-5,-6,11,-4,-5,-3,-7,-2,3
3,10,8,-3,-7,9,-4,-3,-2,-5,-1,4
4,9,5,-1,-7,7,-3,-2,-2,-4,-1,4
4,7,3,0,-6,5,-3,-1,-1,-3,-1,3
9,7,-1,6,-7,3,-1,1,0,1,1,6
5,3,-2,4,-4,1,-1,0,0,0,0,2
0,0,0,0,0,0,0,0,0,0,0,0
-6,-3,4,-4,5,0,4,3,3,1,1,-3
-14,-6,9,-11,10,1,9,8,6,1,1,-4
-21,-8,15,-17,15,3,20,19,12,3,4,-4
-29,-9,21,-24,19,6,31,28,18,2,5,-4
-36,-9,28,-30,24,9,58,56,31,8,12,0
-37,-10,29,-31,25,10,74,83,50,19,22,5
-36,-12,27,-31,26,7,84,108,71,35,35,9
-27,-5,24,-24,18,9,91,130,99,55,52,25
-10,7,20,-14,2,14,97,152,128,77,74,47
18,24,7,7,-21,16,92,165,159,111,104,77
58,48,-9,35,-52,19,77,174,192,150,142,113
92,72,-19,56,-81,26,47,169,225,201,190,162
123,96,-25,74,-108,36,5,155,260,261,250,221
169,143,-26,100,-155,58,-57,123,296,328,322,296
225,199,-26,128,-211,86,-135,74,335,400,404,381
301,277,-23,164,-287,126,-224,28,379,487,497,480
385,367,-18,202,-375,175,-321,-19,429,585,596,589
458,444,-13,237,-450,216,-416,-76,462,672,701,683
527,516,-9,269,-520,253,-512,-136,484,753,797,770
576,549,-25,301,-561,263,-594,-204,467,789,844,809
617,563,-53,336,-588,255,-664,-271,423,795,859,817
629,545,-82,357,-585,230,-718,-347,339,740,811,774
616,500,-115,367,-557,192,-756,-429,225,642,719,689
564,456,-107,336,-508,173,-769,-505,83,507,591,577
476,397,-78,278,-435,158,-759,-580,-83,337,431,436
382,338,-44,214,-359,147,-721,-612,-210,176,284,310
279,276,-2,141,-276,138,-660,-618,-315,13,139,189
193,216,24,86,-203,119,-591,-600,-377,-101,29,90
122,166,45,39,-142,104,-517,-558,-407,-179,-54,12
62,132,70,-2,-96,100,-435,-498,-408,-227,-106,-37
23,118,95,-35,-69,106,-351,-413,-376,-244,-125,-54
5,113,108,-50,-58,110,-281,-332,-325,-231,-121,-57
8,111,104,-47,-58,107,-224,-250,-255,-190,-96,-45
27,117,92,-32,-70,104,-173,-167,-180,-135,-56,-19
53,121,69,-7,-85,94,-130,-93,-110,-75,-14,8
68,113,46,13,-89,78,-96,-37,-57,-25,21,30
70,94,24,23,-80,59,-70,-6,-26,10,40,41
56,67,12,22,-59,40,-54,10,-17,20,40,34
29,44,14,8,-35,29,-47,13,-24,12,24,16
5,25,20,-7,-13,22,-39,11,-32,1,6,0
-16,15,31,-23,1,22,-30,10,-38,-5,-9,-9
-27,14,42,-33,7,29,-21,16,-34,-10,-11,-8
-31,19,50,-38,8,33,-9,31,-21,-5,0,0
-25,9,34,-29,8,21,-12,40,-11,9,10,8
-28,4,32,-30,12,17,-7,48,-3,15,15,13
-33,-3,30,-32,18,13,-2,55,3,20,18,16
-37,-10,26,-32,23,8,2,57,4,21,18,15
-38,-15,22,-30,26,3,6,57,1,18,15,12
-37,-17,19,-29,27,0,9,55,-3,12,11,8
-36,-16,20,-28,26,1,13,55,-6,7,8,6
-36,-12,24,-30,23,6,17,57,-6,4,7,6
-38,-7,30,-34,22,11,20,59,-2,6,10,9
-38,-4,34,-36,20,15,22,63,4,11,15,13
-33,-2,31,-32,17,15,22,65,10,16,19,17
-24,-2,23,-23,13,10,20,66,13,20,22,18
-13,-2,11,-12,7,5,18,66,13,20,22,17
-3,-3,0,-2,3,-1,16,63,9,18,19,14
1,-4,-5,4,1,-5,14,60,3,13,15,9
1,-5,-6,3,2,-5,13,57,-3,8,11,6
-5,-5,0,-3,5,-2,13,55,-8,5,8,4
-13,-4,9,-11,9,3,14,56,-9,4,7,4
-22,-3,20,-22,13,9,15,58,-7,6,9,6
-30,0,30,-30,15,15,18,62,-2,10,12,9
-33,3,37,-36,15,20,21,68,4,17,18,14
-34,7,41,-38,14,24,25,74,11,25,24,20
-32,10,43,-38,11,26,28,79,17,32,30,24
-30,12,43,-36,9,27,31,82,21,38,35,28
-29,12,42,-35,9,26,33,84,23,41,38,30
-28,10,40,-33,9,24,33,84,23,42,40,30
-27,8,36,-31,9,22,32,85,23,42,40,30
-21,8,30,-25,7,19,31,84,22,41,40,29
-11,9,21,-16,1,15,28,83,21,40,39,28
1,12,11,-5,-7,11,25,83,20,39,38,27
14,15,2,6,-14,8,24,84,19,38,38,27
23,17,-6,15,-20,5,23,86,20,37,38,26
28,18,-10,19,-23,3,23,88,20,38,37,26
30,17,-12,21,-23,2,23,90,21,39,36,26
29,16,-13,20,-23,1,24,92,22,39,36,27
26,15,-11,18,-21,2,24,94,22,40,37,29
21,14,-7,13,-18,4,25,97,24,41,38,32
14,13,-1,7,-14,6,26,101,27,43,41,34
5,11,6,-1,-9,9,25,106,31,46,44,37
-3,9,13,-8,-4,11,24,111,35,50,47,40
-10,8,18,-14,0,12,23,116,38,55,51,42
-14,8,21,-18,2,14,22,120,42,60,54,44
-15,9,24,-19,2,16,21,122,46,64,56,45
-12,12,24,-18,-1,18,20,123,49,68,58,45
-7,17,23,-15,-6,20,17,123,52,72,58,43
2,23,21,-9,-13,22,15,122,54,74,57,40
11,27,16,-3,-19,22,13,120,54,76,55,37
17,31,14,2,-24,22,14,120,55,77,54,36
17,33,15,1,-25,24,17,122,56,78,55,38
14,35,21,-3,-24,28,23,126,58,81,59,42
7,37,30,-11,-23,33,29,132,63,85,65,49
0,39,40,-20,-20,39,34,138,69,90,72,57
-6,41,48,-27,-18,44,38,145,76,97,81,64
-11,43,55,-33,-16,48,41,152,83,104,90,73
-13,46,59,-36,-17,52,44,159,90,111,99,81
-11,50,61,-36,-20,55,46,166,96,118,108,89
-5,54,59,-32,-25,56,48,172,101,125,116,96
5,59,54,-24,-33,56,47,176,106,130,121,100
18,64,45,-13,-41,54,43,177,108,134,123,102
34,68,34,0,-51,51,36,177,109,136,122,101
50,72,22,15,-61,47,28,176,108,136,119,99
66,75,9,28,-70,42,20,174,108,136,117,97
77,77,0,39,-77,38,15,174,109,136,117,96
84,78,-6,45,-81,36,11,174,112,138,119,97
85,79,-7,46,-82,36,10,176,118,143,124,100
82,80,-2,42,-81,38,11,181,125,150,131,105
75,81,6,35,-78,43,12,186,135,160,140,112
68,83,15,26,-75,49,15,193,145,171,150,120
62,86,25,19,-75,55,19,200,156,181,158,129
60,92,32,14,-76,62,23,207,166,190,167,136
61,98,37,12,-80,67,27,212,175,197,174,142
65,104,40,13,-85,72,30,217,182,203,180,148
71,111,41,15,-91,76,31,223,188,209,186,153
79,118,40,20,-99,79,31,228,194,215,190,158
89,126,38,26,-108,81,29,233,201,222,194,163
99,132,34,33,-117,83,26,237,207,228,197,168
107,137,30,39,-123,83,24,241,213,234,200,173
113,140,27,43,-128,84,22,244,219,239,204,177
115,142,27,44,-130,85,21,247,223,243,208,180
114,145,30,42,-131,88,20,250,226,248,212,184
112,149,37,38,-131,93,20,252,230,253,218,189
108,153,45,32,-131,99,20,254,234,259,224,194
106,157,51,27,-132,104,20,257,238,266,230,200
105,160,56,25,-133,108,19,259,243,272,237,206
107,164,57,25,-136,110,17,260,248,279,243,211
113,168,56,28,-141,112,15,261,251,284,247,215
121,174,54,34,-148,113,13,258,252,287,250,217
130,180,50,40,-155,114,12,256,251,288,251,217
138,183,46,46,-161,114,11,252,248,287,251,215
142,185,43,50,-164,113,11,249,245,284,249,212
142,185,44,49,-164,114,12,246,241,281,246,208
138,184,47,46,-161,115,14,243,237,277,243,205
132,182,51,41,-157,116,16,239,232,273,240,201
123,178,55,35,-151,116,19,235,227,267,235,196
113,172,60,28,-143,116,21,231,220,260,230,190
102,166,64,20,-134,114,23,225,211,252,224,183
91,158,67,13,-125,113,25,218,200,241,216,174
83,151,69,8,-118,110,26,210,189,230,207,164
76,146,70,4,-111,108,27,201,177,217,197,154
70,140,70,0,-105,105,28,192,166,205,187,144
62,133,71,-4,-98,102,30,183,155,193,177,135
54,126,72,-9,-90,99,32,174,144,182,167,126
46,119,74,-14,-83,96,34,165,132,170,156,118
39,112,74,-18,-76,93,35,157,120,158,145,110
34,106,72,-20,-70,89,36,149,107,145,133,101
31,100,69,-19,-66,84,37,143,93,131,121,92
30,94,64,-17,-62,79,37,136,80,118,109,82
30,88,58,-14,-59,73,37,129,68,106,98,72
30,84,53,-11,-57,68,36,122,58,93,89,63
29,79,50,-9,-54,64,35,115,48,82,80,54
26,75,49,-10,-51,61,34,110,41,73,73,47
22,71,49,-13,-47,60,34,107,34,65,67,42
16,68,52,-17,-42,59,32,106,30,61,63,39
12,65,54,-21,-38,59,31,106,27,58,59,38
9,63,55,-23,-36,59,28,105,25,57,56,36
7,61,54,-24,-34,58,26,104,24,57,54,35
6,58,52,-24,-32,55,24,103,24,58,52,35
4,54,51,-24,-30,53,22,102,23,59,50,34
1,51,50,-25,-27,51,20,100,21,60,50,32
-2,48,50,-26,-24,50,17,99,20,60,49,31
-2,47,49,-26,-24,49,13,97,17,59,48,28
1,48,47,-23,-25,48,9,94,15,57,46,25
5,49,44,-19,-28,47,4,91,11,53,43,21
11,51,41,-15,-32,46,1,87,8,49,40,17
14,52,38,-12,-34,45,-1,83,6,45,37,13
16,53,37,-10,-35,45,-1,81,4,41,36,11
16,53,36,-10,-35,44,-1,79,3,40,36,11
14,51,36,-11,-33,43,0,78,2,39,36,11
11,48,36,-12,-30,42,1,77,1,38,36,12
8,44,36,-14,-27,40,2,76,-1,38,36,13
5,40,36,-15,-24,38,4,75,-2,37,37,15
4,38,35,-16,-21,36,6,76,-3,37,37,16
3,36,34,-15,-20,35,9,78,-2,37,38,18
4,34,32,-14,-20,33,11,80,-2,37,39,19
4,34,30,-13,-19,32,12,83,-1,37,39,19
5,33,29,-12,-19,31,14,85,-1,36,38,19
6,33,28,-11,-19,30,15,87,0,36,37,19
6,33,27,-11,-20,30,16,88,1,35,36,19
6,33,28,-11,-20,31,17,89,2,35,35,18
5,34,29,-12,-20,31,18,90,3,35,34,18
4,34,30,-13,-20,32,18,89,3,35,33,16
2,33,31,-14,-18,32,18,88,2,34,32,15
-1,33,33,-16,-17,32,17,88,1,34,31,13
-3,32,34,-18,-15,33,17,88,0,33,31,12
-6,31,37,-20,-14,34,17,88,-1,32,31,11
-9,31,40,-23,-12,35,17,90,-1,32,31,12
-12,31,43,-27,-10,37,18,91,0,32,32,13
-15,31,47,-31,-8,39,18,93,1,33,33,14
-18,32,51,-34,-7,41,18,94,2,34,34,15
-19,32,52,-35,-7,42,18,95,4,35,35,16
-17,33,51,-34,-8,42,17,95,5,36,35,16
-13,34,47,-30,-10,41,15,94,5,36,35,16
-7,34,42,-24,-14,38,13,93,5,36,34,15
-1,35,36,-18,-17,35,11,92,4,36,34,14
4,34,30,-13,-20,32,9,90,3,35,33,13
8,34,26,-8,-22,29,7,88,2,34,33,12
11,33,22,-5,-23,27,5,87,1,33,33,11
14,33,19,-2,-24,26,3,86,0,32,33,10
16,34,17,0,-26,25,1,87,0,31,33,10
18,34,16,2,-27,25,0,88,1,31,33,11
20,35,16,3,-28,25,0,90,2,31,34,12
20,36,17,3,-29,26,1,93,4,32,35,13
19,37,19,1,-28,28,3,96,6,34,37,15
16,37,22,-2,-27,30,6,98,9,36,39,17
13,38,25,-5,-26,32,8,101,11,38,40,19
10,38,28,-9,-24,33,11,103,12,40,42,21
8,37,30,-11,-23,34,13,105,13,41,44,23
5,37,32,-13,-22,34,15,107,14,42,45,24
3,35,33,-15,-20,34,17,109,14,43,46,25
0,33,34,-17,-17,33,17,110,14,44,47,25
-3,30,34,-19,-15,32,18,111,14,44,47,25
-5,28,35,-20,-13,32,18,111,15,45,47,25
-6,27,35,-21,-12,31,18,111,15,45,47,25
-6,27,35,-20,-12,31,19,110,15,45,47,25
-4,28,34,-19,-13,32,18,108,15,46,46,25
-2,29,33,-18,-15,32,17,107,14,46,46,24
1,31,32,-16,-17,32,16,104,13,46,45,24
4,33,30,-13,-19,32,15,102,12,46,44,23
8,34,28,-10,-22,31,14,100,10,45,43,23
12,35,25,-6,-24,30,13,99,7,44,41,22
16,36,22,-3,-27,29,13,98,4,42,39,21
18,36,19,0,-28,28,12,97,2,40,37,21
20,36,17,2,-29,27,12,96,1,38,35,20
21,35,16,3,-29,26,10,95,0,36,33,19
22,35,14,4,-29,25,8,93,0,35,31,18
23,35,13,5,-30,25,6,91,-1,34,30,17
25,36,12,7,-31,25,3,89,-1,33,29,15
27,38,11,8,-33,25,1,87,-2,32,28,13
28,39,11,8,-35,26,-1,86,-2,31,27,12
28,41,13,8,-35,27,-1,86,-3,30,27,11
26,41,15,6,-35,28,-1,86,-3,30,27,12
24,42,18,4,-35,30,-1,87,-3,30,28,13
23,42,20,2,-34,31,-1,88,-3,31,29,14
22,43,22,1,-34,33,-1,89,-4,32,30,15
22,45,24,0,-35,34,-1,89,-4,32,31,15
23,47,25,0,-37,36,-1,89,-5,33,32,16
24,49,26,0,-39,37,-1,89,-5,34,32,17
26,51,26,1,-41,38,-1,88,-5,35,32,18
28,53,26,2,-42,39,-1,87,-6,36,32,18
29,54,25,2,-43,39,-1,85,-7,36,31,17
30,55,24,3,-44,39,-1,82,-9,34,29,15
30,55,24,3,-43,39,-2,79,-11,32,27,12
28,53,25,1,-42,39,-2,76,-13,29,24,9
23,51,27,-2,-38,39,-2,74,-15,27,22,7
17,47,30,-7,-33,39,-1,73,-16,25,20,5
8,42,34,-12,-26,38,-1,73,-16,24,19,4
-1,36,37,-18,-18,36,0,73,-17,23,19,4
-9,30,39,-23,-12,35,0,73,-17,23,19,5
-14,26,41,-27,-7,33,0,74,-16,23,20,6
-17,23,41,-28,-4,31,0,73,-16,24,21,8
-16,23,40,-27,-5,31,0,73,-15,25,23,10
-12,26,38,-24,-8,31,0,73,-15,26,25,12
-5,30,36,-20,-13,33,0,73,-14,27,27,13
3,36,34,-15,-20,35,0,73,-13,28,29,15
13,43,31,-9,-29,37,0,74,-12,28,30,17
23,51,29,-3,-37,40,1,75,-11,28,32,19
32,60,28,2,-46,44,3,77,-9,28,33,21
40,69,29,6,-55,49,5,79,-7,28,34,24
46,77,32,7,-61,54,8,81,-4,29,35,26
48,85,37,6,-67,61,10,83,-1,30,36,29
48,91,44,2,-70,67,12,84,2,32,38,31
45,96,52,-3,-71,74,14,85,5,35,39,33
41,101,60,-9,-72,80,16,85,8,37,41,35
38,104,67,-14,-72,86,17,84,11,39,43,37
35,107,73,-19,-73,91,17,83,13,41,44,38
34,111,77,-21,-74,95,16,80,14,42,45,39
35,115,81,-23,-77,99,14,77,15,42,46,40
38,121,83,-23,-81,103,10,74,16,42,47,41
42,127,84,-21,-86,106,6,69,17,42,48,41
48,132,84,-18,-91,109,0,65,18,42,49,41
54,138,83,-14,-97,111,-6,60,18,42,49,41
61,143,82,-10,-103,112,-13,54,17,42,49,41
67,148,81,-6,-108,114,-20,48,16,41,49,41
72,152,80,-3,-113,116,-27,42,15,40,49,42
75,156,81,-2,-116,118,-34,35,13,39,49,42
76,158,82,-2,-118,120,-40,29,12,38,50,43
75,159,84,-4,-118,122,-46,23,12,38,50,44
74,160,85,-5,-118,123,-50,18,11,38,51,44
73,159,86,-6,-117,123,-54,14,11,38,51,45
73,158,85,-6,-116,122,-57,11,11,37,52,45
74,157,83,-4,-116,120,-59,8,11,36,52,45
75,155,80,-2,-116,118,-60,5,10,35,51,44
77,153,77,0,-116,115,-60,2,10,33,49,42
78,151,73,3,-116,112,-59,-1,8,32,47,40
78,147,70,5,-114,109,-57,-3,7,30,45,36
77,142,66,6,-110,104,-54,-6,5,29,42,32
73,134,61,7,-105,98,-51,-8,2,26,38,27
68,125,57,6,-98,91,-47,-11,0,23,34,22
61,114,53,5,-89,84,-43,-14,-3,19,30,17
53,103,50,2,-79,77,-39,-16,-6,15,26,13
43,92,49,-2,-69,71,-35,-17,-8,12,22,9
32,81,49,-8,-58,65,-32,-18,-10,9,19,7
22,71,49,-14,-48,60,-30,-19,-11,7,16,6
12,62,50,-19,-38,56,-28,-19,-13,5,14,5
5,53,48,-22,-30,51,-28,-19,-14,3,12,4
0,45,45,-23,-24,46,-28,-19,-16,0,10,3
-2,39,41,-22,-20,40,-28,-20,-18,-2,8,2
-2,34,36,-19,-17,35,-29,-21,-21,-5,6,1
0,30,30,-15,-16,31,-30,-23,-23,-8,4,-1
3,27,24,-10,-16,26,-32,-26,-26,-11,3,-2
7,25,18,-6,-17,22,-33,-30,-29,-13,1,-4
11,23,12,-1,-18,18,-34,-33,-31,-16,0,-5
15,22,6,4,-20,15,-35,-36,-33,-18,-2,-6
20,21,1,9,-22,12,-34,-37,-34,-20,-3,-7
23,21,-3,13,-23,10,-32,-36,-34,-22,-4,-6
26,21,-5,15,-24,9,-29,-34,-33,-22,-4,-5
25,21,-4,15,-24,9,-24,-30,-31,-21,-4,-3
22,21,-1,12,-22,11,-20,-26,-28,-19,-4,-1
17,20,3,7,-19,12,-16,-21,-25,-15,-3,2
11,18,7,2,-15,13,-13,-17,-21,-11,-2,3
6,15,9,-1,-11,13,-11,-13,-17,-8,-1,4
3,11,8,-2,-8,10,-9,-10,-13,-5,-1,3
-4,10,15,-9,-2,13,-7,-5,-9,1,3,6
-3,4,8,-4,-1,7,-4,-4,-5,1,1,2
0,0,0,0,0,0,0,0,0,0,0,0
2,-4,-5,4,2,-4,8,6,9,2,-1,-2
0,-9,-9,6,5,-9,18,15,19,4,-3,-5
0,-13,-12,7,7,-12,30,30,33,10,-3,-6
-6,-19,-12,4,13,-16,42,44,48,15,-5,-10
8,-10,-17,13,2,-13,56,73,69,29,3,0
17,2,-17,17,-9,-7,56,98,99,53,21,21
22,10,-11,17,-16,0,49,123,137,84,49,49
45,33,-12,29,-39,11,41,142,178,126,86,89
79,61,-18,49,-70,23,30,152,222,175,133,137
117,94,-21,70,-105,37,-5,141,260,233,190,196
159,133,-25,93,-145,54,-58,115,294,296,257,264
203,186,-17,111,-193,85,-126,79,338,376,335,353
253,251,-2,128,-252,126,-203,35,386,464,423,452
320,328,8,156,-323,169,-294,-14,430,559,517,551
396,414,17,190,-404,216,-394,-68,472,659,626,654
469,491,24,223,-480,258,-485,-127,487,735,707,731
533,563,32,251,-547,297,-570,-191,487,799,772,793
568,579,12,280,-573,296,-638,-254,454,813,787,806
584,558,-26,306,-571,266,-697,-317,397,794,767,787
566,520,-44,306,-543,239,-734,-386,304,720,698,725
528,470,-56,293,-498,207,-756,-458,179,602,589,629
467,418,-49,260,-442,185,-760,-534,30,443,447,499
393,361,-31,213,-376,164,-748,-610,-143,248,275,341
325,303,-21,175,-312,141,-706,-635,-262,83,124,213
257,246,-10,135,-251,118,-642,-627,-347,-69,-15,102
184,195,14,85,-188,104,-565,-592,-390,-171,-112,19
104,153,50,29,-128,102,-482,-536,-397,-232,-175,-37
47,127,80,-15,-86,103,-403,-473,-382,-260,-209,-68
8,111,104,-47,-60,108,-328,-399,-338,-252,-212,-72
-11,110,122,-66,-48,116,-265,-321,-276,-215,-192,-57
-14,113,128,-69,-49,121,-212,-239,-198,-156,-151,-27
-1,114,115,-58,-57,115,-170,-166,-121,-91,-103,3
24,110,86,-29,-65,99,-137,-106,-55,-32,-59,25
35,88,53,-7,-60,71,-107,-64,-13,7,-36,39
34,54,19,9,-43,38,-83,-42,6,23,-33,38
35,28,-7,22,-30,11,-69,-32,2,20,-45,27
35,9,-24,29,-21,-7,-64,-31,-13,4,-64,7
26,-10,-36,32,-8,-23,-62,-40,-35,-23,-89,-16
15,-30,-44,31,7,-37,-62,-52,-54,-51,-114,-38
13,-25,-39,26,7,-33,-54,-46,-54,-61,-125,-43
20,-8,-27,25,-5,-18,-42,-30,-41,-59,-122,-36
12,3,-8,9,-6,-2,-26,-8,-15,-35,-106,-17
-7,-5,3,-5,6,-1,-15,2,2,-10,-90,-5
-11,-4,8,-10,8,3,-6,11,12,1,-83,2
-14,-3,12,-13,8,6,0,16,18,7,-78,5
-14,1,16,-15,6,9,4,19,20,9,-77,7
-12,8,21,-17,1,15,7,22,20,8,-76,8
-11,17,29,-20,-4,23,10,25,22,9,-75,11
-8,26,35,-22,-10,30,12,29,25,12,-72,14
-4,32,37,-20,-16,34,12,33,29,17,-69,18
3,36,33,-15,-21,34,11,37,34,23,-65,21
12,35,24,-6,-25,30,10,41,38,28,-62,23
21,33,12,4,-28,23,8,42,39,30,-61,24
29,30,0,15,-30,15,7,40,36,30,-61,23
36,27,-9,23,-32,9,6,37,31,28,-64,20
39,24,-15,27,-32,4,6,34,25,24,-69,17
36,21,-15,26,-29,3,7,33,20,21,-74,14
27,20,-8,17,-24,6,9,34,17,19,-78,12
16,19,2,7,-18,11,12,37,16,18,-79,12
6,17,10,-2,-12,14,16,41,17,20,-79,13
0,15,15,-8,-8,15,18,45,19,22,-79,16
-3,12,15,-9,-5,14,20,49,22,24,-78,18
-3,11,13,-8,-5,12,20,52,25,26,-77,19
-1,11,11,-6,-6,11,20,53,27,28,-76,21
3,12,9,-3,-8,11,18,54,29,29,-75,22
9,15,7,1,-13,11,16,53,30,29,-75,23
14,17,4,5,-16,11,12,51,30,29,-74,24
17,19,3,7,-19,11,8,51,30,29,-73,26
21,21,1,10,-22,11,4,50,30,30,-70,27
26,23,-2,14,-25,11,-1,49,31,31,-66,29
31,26,-4,17,-29,11,-4,49,33,32,-61,31
34,28,-5,19,-32,12,-7,48,36,34,-57,32
36,31,-4,20,-34,13,-8,49,39,36,-53,34
35,32,-3,19,-34,15,-7,50,43,38,-51,37
33,32,-1,17,-33,15,-5,52,47,40,-51,38
32,31,-1,16,-32,15,-3,52,49,40,-52,38
32,29,-3,17,-31,13,-2,50,50,39,-54,37
36,29,-7,21,-33,11,-1,48,50,37,-57,34
42,29,-12,26,-36,8,-1,45,50,35,-59,31
48,31,-16,32,-40,7,0,45,50,35,-62,30
51,33,-17,33,-43,9,2,46,52,35,-64,30
48,36,-11,29,-43,13,6,48,54,37,-65,32
43,39,-3,23,-42,18,9,51,57,40,-64,34
36,41,5,15,-40,23,11,52,60,43,-62,37
31,43,12,10,-38,27,12,53,62,48,-59,40
31,45,15,8,-39,30,11,53,65,52,-56,43
31,47,17,7,-39,32,10,54,69,57,-51,49
31,49,19,6,-40,35,9,57,74,63,-45,55
30,50,20,5,-40,36,7,60,80,69,-39,62
29,48,19,5,-39,34,3,64,85,74,-32,67
30,45,16,7,-38,32,-1,66,89,79,-27,71
31,43,12,10,-38,28,-5,68,92,82,-24,73
35,43,7,14,-40,26,-7,71,96,85,-21,75
41,45,4,18,-44,25,-6,75,101,89,-17,79
47,50,3,22,-49,27,-3,82,107,94,-12,84
52,55,3,25,-54,29,0,89,113,100,-6,89
56,60,5,26,-58,32,4,96,120,107,-1,95
59,66,8,26,-63,37,7,103,126,114,5,101
63,73,10,27,-68,42,9,109,132,121,10,106
70,82,12,30,-76,47,11,114,137,125,14,109
80,91,12,34,-86,52,11,116,140,128,18,111
90,100,10,40,-95,56,10,117,141,130,20,110
100,107,8,46,-104,58,8,118,143,131,21,108
106,112,7,49,-110,61,7,120,145,132,21,107
108,116,8,49,-113,63,8,123,149,133,22,107
106,118,12,47,-113,66,9,129,155,135,25,110
103,119,16,43,-112,68,11,135,162,138,29,114
99,119,20,40,-110,70,13,140,170,143,36,119
96,120,24,36,-109,73,15,144,178,150,44,125
92,121,29,32,-108,76,18,149,188,159,54,134
89,124,35,27,-108,80,20,155,198,170,67,143
86,126,40,23,-108,84,21,161,208,182,82,154
86,130,44,21,-109,88,21,167,219,194,98,164
91,134,44,23,-114,90,19,172,228,206,113,173
98,139,42,28,-120,91,16,176,237,217,128,181
107,145,39,34,-127,92,14,180,245,227,142,188
117,150,34,41,-134,92,13,184,252,235,155,194
125,154,30,48,-140,92,12,186,258,243,166,200
134,157,25,54,-146,91,12,187,262,249,175,204
142,162,21,60,-153,92,11,188,265,252,180,206
151,168,19,66,-160,94,11,189,267,255,184,209
159,176,18,70,-168,97,13,190,269,258,187,211
165,184,19,73,-175,102,15,192,272,261,192,214
169,190,21,74,-181,106,16,193,275,266,198,217
172,196,25,74,-185,110,18,194,278,271,205,220
175,202,28,74,-189,115,18,194,281,275,211,222
176,207,32,72,-192,119,19,193,282,279,216,223
175,210,36,70,-194,123,20,192,283,281,220,225
173,212,41,67,-193,126,22,191,283,282,223,225
169,212,45,62,-191,129,25,190,282,282,223,226
164,212,50,58,-188,131,27,188,280,281,223,227
159,211,54,53,-186,132,29,185,277,279,222,227
155,210,57,49,-183,134,30,181,272,277,219,226
150,209,60,46,-181,135,31,175,268,273,217,223
146,206,62,42,-177,134,32,168,261,268,212,218
142,202,62,40,-173,133,33,160,253,262,205,210
137,196,59,39,-167,128,32,150,242,252,195,200
133,187,55,39,-161,122,31,137,227,239,181,185
127,178,51,38,-153,115,29,124,211,222,165,169
118,170,52,33,-145,111,28,112,194,204,149,153
106,162,56,25,-135,110,28,101,177,186,134,138
89,153,65,12,-122,110,28,91,162,170,120,125
71,144,73,-1,-109,109,28,83,148,154,107,114
57,134,78,-10,-97,106,28,74,136,140,95,103
46,124,79,-17,-86,102,26,67,126,128,84,95
39,116,77,-19,-79,97,25,60,118,118,76,88
35,108,74,-19,-73,91,24,54,111,110,70,84
32,101,70,-19,-67,86,24,50,107,103,65,81
30,94,65,-18,-63,80,24,45,103,98,61,78
29,87,59,-15,-59,73,23,40,99,93,57,75
31,81,51,-10,-57,66,21,35,95,89,53,72
35,76,42,-4,-56,60,19,29,92,86,49,69
38,72,35,1,-56,54,16,23,88,83,45,67
40,70,30,5,-56,50,14,18,86,80,43,65
40,68,28,6,-55,49,12,14,84,76,41,64
37,67,29,4,-53,48,12,11,82,73,39,62
34,66,32,1,-51,49,13,8,80,69,37,60
32,66,34,-1,-50,50,14,5,77,65,34,58
30,66,36,-3,-49,51,15,1,75,61,31,55
30,67,37,-3,-49,52,14,-3,72,55,27,51
31,67,36,-3,-49,52,14,-7,71,50,23,48
30,66,36,-3,-48,51,15,-10,70,47,20,46
27,64,37,-5,-46,51,16,-12,70,44,18,44
22,62,40,-9,-42,51,18,-14,71,42,17,43
15,60,44,-15,-38,52,20,-16,71,41,16,42
7,57,50,-21,-32,54,21,-18,71,38,14,40
0,55,55,-27,-28,55,21,-20,71,36,12,37
-5,53,58,-31,-24,56,21,-22,70,33,9,34
-7,52,59,-33,-23,56,19,-25,68,30,7,31
-6,52,58,-31,-23,55,16,-28,66,28,5,28
-2,52,54,-27,-25,53,13,-32,63,25,3,25
4,53,49,-22,-29,51,10,-36,61,23,2,23
11,55,44,-16,-33,49,8,-39,59,22,2,22
19,57,39,-9,-38,48,6,-42,58,22,2,22
26,60,34,-4,-43,47,6,-45,58,23,2,24
32,63,31,0,-48,47,6,-47,59,24,2,26
36,65,30,3,-51,48,6,-49,61,27,3,28
38,67,29,4,-53,49,7,-50,63,29,4,31
39,68,30,4,-54,50,8,-50,65,31,5,33
38,68,31,3,-53,50,9,-50,68,33,6,35
36,66,31,2,-51,50,11,-50,70,35,8,37
33,64,32,1,-49,49,12,-50,71,36,9,38
31,62,32,0,-47,48,12,-50,72,36,10,38
29,60,32,-1,-45,47,12,-51,73,37,11,38
29,59,31,-1,-45,46,12,-52,74,37,12,37
29,59,30,0,-45,45,13,-53,75,37,12,36
31,60,30,1,-46,45,13,-54,76,37,13,35
32,61,29,1,-47,46,14,-55,77,37,14,34
33,63,30,2,-49,47,15,-56,78,37,14,34
33,65,33,0,-50,49,16,-56,80,37,15,33
32,67,36,-2,-50,52,17,-56,81,37,16,33
28,69,41,-6,-49,55,19,-56,82,37,16,32
24,69,46,-11,-47,58,20,-56,83,37,17,32
20,70,50,-15,-45,60,20,-56,84,37,17,31
17,70,53,-18,-43,62,20,-56,85,36,17,31
16,69,54,-19,-43,62,18,-57,85,35,17,30
16,69,54,-20,-42,62,16,-58,85,34,16,30
16,68,53,-19,-42,61,12,-59,85,33,16,29
16,67,52,-18,-42,60,9,-61,85,33,15,28
16,66,51,-18,-41,59,5,-62,85,32,15,28
16,65,50,-17,-41,57,2,-64,85,32,15,27
16,63,48,-16,-40,56,0,-66,85,31,15,27
16,62,46,-15,-39,54,-2,-67,85,30,15,27
16,60,45,-14,-38,52,-2,-69,86,30,15,28
14,57,44,-14,-36,50,-2,-70,86,31,15,29
12,54,43,-15,-33,49,-1,-70,87,32,15,30
9,52,43,-17,-31,48,0,-70,88,33,15,31
6,50,44,-19,-29,47,2,-70,89,35,15,32
4,49,44,-20,-27,47,3,-70,90,37,15,32
4,49,45,-21,-27,47,4,-70,92,38,16,33
5,50,45,-21,-28,48,4,-70,93,39,17,32
7,51,45,-20,-29,49,4,-71,94,39,17,32
9,53,44,-18,-31,49,3,-72,95,39,18,30
11,55,44,-17,-33,50,1,-72,96,39,18,29
13,56,44,-16,-34,50,0,-72,96,38,18,28
14,56,43,-15,-34,50,-1,-71,96,37,19,27
14,56,43,-15,-34,49,-1,-70,96,36,19,26
14,55,42,-15,-34,48,-1,-69,96,35,19,25
13,54,42,-15,-34,48,-1,-68,95,34,19,25
12,54,43,-16,-33,48,1,-67,95,33,18,24
11,55,45,-17,-33,50,3,-66,94,33,18,25
8,56,49,-21,-32,52,6,-65,95,34,18,26
4,57,53,-25,-31,55,8,-64,96,35,18,27
0,58,58,-29,-29,58,10,-63,96,36,19,28
-2,58,62,-32,-28,60,10,-63,96,37,20,29
-3,59,63,-33,-28,61,9,-63,96,37,21,30
-1,60,63,-32,-30,62,8,-64,95,37,22,31
2,61,61,-29,-32,61,7,-64,95,38,23,32
6,62,57,-26,-34,59,6,-64,94,38,24,33
10,62,53,-21,-36,57,5,-64,93,39,24,33
15,61,48,-17,-39,54,5,-64,92,40,24,32
19,61,43,-12,-40,52,4,-64,91,39,23,32
24,60,38,-7,-42,49,3,-65,89,38,23,31
27,59,34,-4,-44,47,1,-65,88,37,22,30
29,59,31,-1,-44,45,0,-66,86,35,21,29
30,58,30,0,-44,44,-1,-66,85,34,21,29
28,57,30,-1,-42,44,-2,-67,84,33,21,29
24,56,32,-4,-40,44,-2,-67,83,31,20,29
20,55,36,-8,-37,45,-2,-66,81,30,20,29
15,54,40,-12,-35,47,-2,-66,80,28,20,29
11,54,44,-16,-33,49,-2,-65,79,27,19,29
8,54,47,-20,-31,51,-1,-64,78,26,19,28
5,55,51,-23,-31,53,-1,-62,78,25,18,28
3,56,54,-26,-30,56,0,-60,77,25,18,28
1,58,58,-29,-31,58,1,-57,77,26,18,27
0,60,62,-31,-31,61,2,-55,77,27,18,27
-2,62,65,-34,-31,64,3,-53,77,29,18,27
-3,63,67,-36,-31,65,4,-51,77,31,19,28
-4,64,69,-37,-30,67,5,-51,77,33,19,28
-5,64,70,-38,-30,67,5,-51,76,35,19,29
-4,64,70,-37,-31,68,5,-52,75,36,19,29
-2,66,69,-36,-32,68,5,-52,73,37,18,29
1,67,68,-34,-34,68,5,-52,72,38,18,29
4,70,68,-32,-37,70,5,-52,70,38,17,28
7,74,68,-31,-41,72,6,-51,69,37,17,27
10,79,70,-30,-45,75,7,-50,68,37,17,26
13,85,72,-30,-49,79,9,-49,68,37,17,25
16,91,75,-30,-54,84,11,-48,68,37,17,25
18,97,79,-31,-58,89,14,-47,68,37,18,25
20,103,83,-32,-62,93,16,-46,69,38,20,26
21,108,87,-33,-65,98,17,-44,70,39,21,27
22,112,90,-34,-67,102,19,-42,71,40,23,27
22,115,93,-35,-69,105,20,-39,71,41,24,28
21,117,96,-37,-70,107,22,-36,72,42,25,30
20,119,99,-39,-70,110,23,-33,73,44,26,32
18,120,103,-42,-70,112,24,-30,73,45,28,34
16,122,106,-44,-70,114,24,-28,74,46,29,37
15,124,110,-46,-70,117,22,-27,75,48,31,39
15,127,113,-48,-72,120,18,-26,75,49,33,42
16,131,116,-50,-74,123,14,-26,75,50,35,44
17,134,118,-50,-76,126,9,-27,75,52,38,46
19,138,120,-50,-79,129,3,-29,74,52,40,48
22,141,119,-48,-82,130,-4,-32,72,52,42,48
26,143,118,-45,-85,130,-12,-35,69,51,43,48
31,145,115,-42,-89,130,-20,-39,65,50,43,48
35,147,112,-38,-92,129,-27,-43,61,48,43,48
40,148,109,-35,-95,129,-33,-46,57,47,43,48
44,150,107,-31,-97,128,-38,-48,54,46,42,49
47,151,105,-29,-99,128,-41,-48,51,45,42,51
49,152,104,-28,-101,128,-42,-46,50,46,42,53
50,153,104,-27,-101,129,-41,-44,50,47,42,56
49,153,105,-28,-101,130,-40,-41,50,49,43,59
48,152,105,-29,-100,129,-39,-37,50,50,43,61
46,149,105,-30,-98,128,-37,-34,50,51,43,61
44,145,103,-30,-95,125,-35,-31,49,50,42,61
41,139,100,-30,-91,120,-33,-29,48,49,41,59
38,132,96,-30,-85,114,-31,-27,46,47,39,55
33,122,91,-29,-78,107,-28,-25,43,43,36,50
28,111,86,-29,-70,99,-26,-24,39,39,32,44
22,100,80,-29,-61,90,-24,-24,35,34,27,37
17,88,73,-28,-53,81,-22,-24,31,28,22,29
13,77,66,-26,-45,72,-21,-24,26,22,17,22
10,67,58,-24,-39,63,-20,-25,22,16,11,16
8,58,51,-21,-33,55,-20,-26,18,11,6,10
7,50,44,-18,-29,47,-19,-26,14,7,2,5
5,43,39,-17,-25,41,-19,-25,11,3,-1,2
2,37,37,-17,-21,37,-18,-24,8,1,-4,-1
-2,32,36,-19,-16,34,-15,-22,6,0,-5,-1
-9,28,38,-23,-11,33,-12,-19,5,-1,-6,-1
-16,24,42,-29,-5,33,-9,-16,5,0,-6,-1
-24,20,46,-35,1,33,-5,-13,5,1,-6,1
-31,17,50,-40,6,34,-2,-10,6,3,-5,2
-36,14,52,-43,10,33,0,-8,7,5,-5,3
-39,11,52,-45,13,32,1,-7,8,7,-4,5
-40,9,51,-45,15,30,2,-6,8,9,-2,6
-39,7,48,-43,15,27,1,-5,8,11,-1,7
-36,5,43,-39,15,23,1,-5,8,12,0,7
-32,3,37,-34,14,19,0,-4,7,12,1,7
-26,2,29,-28,12,15,0,-4,6,11,1,6
-20,1,22,-21,9,11,-1,-3,5,9,1,5
-14,-1,15,-13,8,6,-1,-3,5,10,2,5
-6,0,6,-6,5,3,-2,-2,3,6,2,3
0,0,0,0,0,0,0,0,0,0,0,0
3,1,0,2,-2,1,6,6,0,-3,-1,-1
-3,1,6,-4,1,4,16,15,2,-4,-1,0
-14,0,16,-15,8,8,31,30,10,-1,1,2
-37,-7,32,-34,22,13,49,44,16,3,1,5
-46,-7,42,-43,27,17,70,74,39,15,8,8
-45,-2,46,-44,24,22,88,105,67,27,19,9
-37,5,44,-40,17,24,93,127,95,46,36,21
-25,14,41,-32,6,27,90,145,121,71,59,39
-13,24,38,-25,-4,32,76,153,153,105,91,67
3,36,35,-17,-19,36,53,157,188,142,133,102
31,61,31,0,-45,47,26,151,224,191,184,150
73,94,23,25,-82,59,-11,138,259,245,242,207
134,143,12,62,-138,76,-67,106,293,309,308,278
207,202,-4,106,-204,99,-139,60,327,380,381,356
285,276,-8,147,-279,133,-228,7,363,457,464,448
363,361,-2,184,-361,179,-325,-52,401,543,554,549
438,440,3,217,-437,221,-423,-112,432,629,643,642
509,519,13,248,-513,265,-518,-169,461,718,745,732
546,563,19,264,-553,291,-596,-228,459,770,806,783
562,586,25,269,-574,306,-663,-286,441,797,846,810
564,572,12,277,-567,293,-711,-350,386,773,826,790
550,530,-16,283,-540,257,-749,-420,305,710,765,735
516,490,-24,270,-501,234,-770,-493,186,597,664,641
464,440,-21,242,-451,211,-776,-571,35,443,528,513
382,385,6,188,-381,194,-750,-614,-101,278,382,385
277,322,48,115,-298,184,-702,-641,-233,101,219,252
192,256,67,63,-223,161,-638,-626,-311,-27,96,146
121,198,79,21,-159,139,-564,-581,-351,-120,1,60
73,155,83,-4,-114,120,-484,-528,-365,-184,-72,-2
44,130,87,-20,-87,108,-401,-458,-348,-217,-116,-38
24,114,91,-33,-69,103,-330,-385,-316,-224,-133,-56
15,104,90,-37,-58,97,-269,-306,-261,-203,-118,-52
13,101,89,-37,-57,95,-214,-226,-191,-161,-88,-36
19,96,78,-29,-57,87,-165,-152,-116,-106,-48,-14
25,86,61,-18,-55,74,-127,-91,-54,-56,-12,8
28,70,43,-6,-48,56,-98,-51,-13,-17,12,23
28,50,23,3,-38,37,-69,-22,10,6,23,28
20,33,14,4,-26,25,-41,-4,15,15,25,24
2,21,20,-8,-11,20,-25,-5,5,7,14,11
-22,15,38,-30,4,27,-18,-12,-9,-11,2,0
-49,10,62,-54,20,36,-10,-10,-14,-19,-6,-4
-75,4,82,-78,37,42,2,3,-5,-15,-5,1
-76,8,87,-81,35,48,11,16,11,-1,4,10
-48,8,58,-53,20,33,8,21,21,10,9,7
-40,4,46,-43,18,25,10,26,25,14,10,6
-28,1,30,-30,13,15,10,26,26,15,7,2
-16,-2,15,-16,8,6,11,24,23,11,1,-3
-7,-3,6,-8,4,2,12,21,18,5,-7,-8
-1,0,1,-2,0,0,13,18,13,-1,-13,-12
3,4,2,0,-4,3,16,18,11,-5,-17,-12
3,9,7,-2,-7,8,19,20,13,-3,-16,-8
1,13,13,-6,-8,13,24,25,18,3,-11,-2
-2,16,19,-11,-8,18,27,32,26,11,-4,6
-5,17,23,-14,-7,20,30,38,33,19,3,13
-7,17,25,-17,-6,21,31,41,39,25,9,17
-9,16,25,-18,-4,21,30,41,41,28,12,18
-9,14,24,-17,-3,20,30,40,41,29,13,18
-8,12,21,-16,-3,17,29,38,39,28,13,16
-6,10,17,-12,-3,14,28,35,36,26,12,13
-4,9,14,-9,-4,12,26,33,35,24,11,10
-3,8,12,-8,-4,10,24,33,35,23,11,8
-2,8,11,-6,-4,9,23,34,37,24,13,8
0,8,9,-4,-5,8,23,37,41,27,16,9
2,8,7,-2,-6,7,25,40,44,31,20,11
4,10,6,-1,-8,8,26,43,46,36,23,14
6,11,6,0,-9,8,29,45,48,40,26,16
8,14,6,1,-12,10,31,46,48,42,26,18
11,16,6,3,-14,11,33,46,48,42,25,18
14,18,4,5,-17,11,34,44,46,40,23,17
17,19,3,7,-19,11,35,43,44,37,20,16
18,19,2,7,-19,11,34,43,44,35,19,16
17,18,2,7,-18,10,33,43,44,33,19,16
16,17,2,6,-17,9,30,44,45,32,19,16
16,14,0,8,-16,7,27,43,46,32,19,16
20,14,-5,12,-18,5,25,42,46,33,18,15
26,15,-10,17,-21,3,24,41,47,33,18,14
32,18,-13,22,-25,3,24,41,49,34,18,15
35,22,-12,23,-29,5,25,43,52,35,20,16
30,26,-4,17,-29,11,28,47,55,38,22,19
24,30,6,9,-28,18,31,51,59,42,26,23
18,34,16,1,-27,25,34,54,62,47,30,27
15,37,22,-4,-27,30,37,56,65,51,35,31
17,40,23,-4,-29,32,38,56,66,54,38,34
21,42,22,-1,-32,32,37,57,68,57,41,37
24,43,19,1,-34,31,36,60,71,60,45,40
26,42,17,4,-35,29,34,64,74,64,49,44
26,40,15,5,-34,26,32,68,76,68,51,48
27,37,11,8,-33,23,30,71,78,72,52,50
31,36,7,12,-34,20,28,74,79,74,51,52
37,38,2,17,-38,19,27,76,79,75,51,53
44,42,-1,23,-44,20,27,77,81,77,52,55
51,47,-3,27,-50,22,28,79,84,79,55,58
54,51,-2,28,-53,24,30,82,88,83,59,61
53,53,1,26,-54,27,32,85,93,87,64,65
50,56,7,22,-54,31,35,89,100,91,69,69
44,58,14,15,-52,35,38,93,107,96,75,73
38,59,22,8,-50,39,39,97,114,101,82,77
32,60,28,2,-47,43,40,101,121,105,89,80
29,60,31,-1,-46,45,39,104,128,110,95,83
30,61,31,0,-47,46,38,107,134,114,100,86
36,64,27,5,-51,45,37,110,139,119,102,88
45,66,22,12,-56,44,37,114,144,122,104,91
52,68,16,19,-61,42,37,118,148,125,106,94
60,70,11,25,-66,40,39,122,153,129,109,97
67,72,6,31,-70,39,41,127,158,133,113,100
75,76,1,37,-76,38,42,132,162,138,117,104
85,82,-3,44,-84,39,44,136,167,143,122,108
95,88,-6,50,-92,41,44,141,172,149,126,113
102,96,-6,54,-99,45,44,147,179,155,132,120
108,103,-4,56,-106,50,44,153,186,163,138,127
113,111,-1,56,-112,55,44,159,194,172,144,134
116,118,2,57,-118,60,45,164,201,181,149,141
121,124,4,58,-123,64,45,168,207,190,155,149
126,130,5,61,-129,68,44,172,213,197,161,156
134,136,3,65,-136,70,43,176,219,204,167,162
142,142,1,71,-143,72,40,179,224,211,173,168
149,147,-1,76,-149,73,37,180,228,217,178,172
156,151,-4,80,-155,74,33,181,232,223,184,176
160,155,-5,83,-159,75,31,183,237,229,190,180
164,159,-5,84,-162,77,30,185,241,235,196,185
167,163,-4,85,-166,79,31,188,246,241,201,190
167,167,0,83,-168,83,33,191,251,248,206,196
165,171,6,79,-169,88,35,195,257,254,211,202
161,175,14,73,-169,94,38,199,263,261,218,209
159,181,23,68,-171,101,41,204,271,269,226,216
158,188,30,64,-174,108,44,209,278,276,234,223
160,195,36,62,-178,115,46,213,285,282,242,229
163,202,40,62,-183,120,47,215,289,287,249,234
166,206,40,63,-187,123,48,216,292,290,255,237
169,208,39,65,-190,123,47,216,291,291,258,238
172,208,36,68,-191,122,45,212,289,290,258,238
173,208,34,69,-192,120,44,207,284,288,257,237
174,208,34,70,-192,120,43,203,279,285,253,235
172,208,36,68,-191,121,43,197,273,280,249,232
168,208,40,64,-189,123,43,192,266,275,243,227
162,205,44,59,-184,124,43,186,259,268,237,222
155,201,47,54,-179,123,44,180,250,260,230,215
148,195,48,50,-172,121,45,173,241,251,223,207
141,189,48,46,-166,118,46,166,232,240,215,199
135,182,47,44,-159,114,46,159,222,229,205,188
128,173,45,41,-151,109,46,149,210,217,193,176
119,163,44,37,-142,103,46,139,198,203,179,164
107,153,45,31,-131,99,46,129,185,188,165,151
94,142,48,23,-119,94,46,119,172,174,151,139
80,132,52,14,-107,91,47,110,161,161,138,128
67,123,55,6,-96,88,47,102,149,149,126,118
58,115,58,-1,-87,86,48,96,139,139,116,109
51,109,59,-5,-81,84,48,90,129,129,107,102
46,104,59,-7,-76,81,48,85,120,120,99,95
45,102,57,-6,-74,79,48,80,112,111,92,87
48,100,53,-3,-75,77,48,74,103,102,85,80
53,100,48,2,-77,74,48,67,93,93,77,72
59,99,41,8,-80,71,46,61,84,83,70,64
63,98,36,14,-82,67,45,55,76,75,63,58
65,97,33,16,-82,65,44,50,70,68,56,54
64,95,32,16,-81,63,44,46,65,62,50,51
60,92,33,13,-77,62,44,42,62,58,45,49
54,88,34,9,-72,61,43,38,58,54,40,47
49,83,34,7,-67,58,41,34,55,50,34,44
44,78,34,4,-62,55,38,31,51,44,29,40
39,73,33,2,-57,53,36,29,48,38,25,36
35,69,33,0,-53,50,35,28,45,32,22,31
32,67,35,-2,-50,50,33,27,43,25,20,27
30,66,36,-3,-48,50,32,25,42,20,19,24
29,64,36,-4,-47,49,30,24,40,17,18,22
29,63,35,-3,-46,48,28,22,39,15,17,22
29,60,32,-2,-45,46,27,20,37,15,17,23
30,59,30,0,-45,44,27,20,36,15,17,24
30,57,28,0,-44,42,27,20,36,16,17,25
28,56,28,-1,-42,42,27,20,36,17,17,26
25,54,30,-3,-40,42,28,20,36,17,17,27
22,53,31,-5,-38,42,29,20,36,17,17,27
20,53,32,-7,-37,43,29,20,36,18,17,27
21,53,32,-6,-38,43,30,21,36,18,18,28
24,55,30,-3,-41,43,30,21,36,19,18,28
30,58,28,1,-45,43,29,21,36,21,18,29
37,61,24,7,-50,42,27,21,36,22,17,29
44,63,19,13,-55,41,25,20,35,24,16,29
51,65,14,19,-60,39,22,19,33,25,14,29
57,66,8,25,-63,36,18,18,32,25,12,28
62,65,3,30,-65,33,14,16,31,24,10,26
