-14,6,20,-16,8,13,36,11,15,31,26,56
-4,15,20,-10,-4,18,40,12,17,31,29,60
11,27,19,-4,-18,23,43,15,18,35,34,67
11,28,19,-4,-15,22,46,15,19,35,36,70
9,24,15,-2,-16,20,50,14,17,36,39,72
9,21,13,-2,-12,19,52,16,17,36,39,73
7,18,11,-1,-10,15,53,13,14,35,39,72
9,21,12,-1,-13,15,50,12,13,30,34,66
8,19,11,0,-13,16,44,12,11,28,26,62
-1,16,18,-9,-5,17,44,12,12,27,27,59
-17,10,27,-22,5,20,43,12,13,26,25,61
-14,9,24,-18,4,17,41,10,14,26,24,59
-11,9,21,-15,1,16,42,8,10,25,22,58
-9,15,23,-16,-2,18,43,10,13,26,23,60
-4,19,23,-14,-6,22,46,9,14,27,25,59
-4,26,32,-16,-8,29,51,12,19,29,26,60
-4,32,36,-21,-13,34,54,15,20,31,26,60
1,29,32,-14,-13,30,52,12,18,28,23,58
5,27,22,-9,-13,26,45,12,16,25,23,55
-1,24,27,-13,-10,27,44,10,14,22,20,51
-8,23,32,-21,-6,27,43,9,17,21,21,49
-5,25,30,-17,-8,27,43,11,16,20,21,49
1,27,28,-13,-12,30,45,13,15,20,19,50
-3,30,31,-16,-10,29,46,16,18,22,19,52
-3,31,33,-18,-11,34,46,14,20,22,21,55
-6,32,38,-22,-10,34,49,18,23,25,23,57
-8,30,40,-24,-9,37,46,18,26,27,30,58
-7,28,35,-22,-8,31,48,17,25,26,27,57
-6,28,33,-19,-9,30,46,18,22,24,25,56
5,30,22,-9,-16,26,46,16,21,23,25,54
18,30,15,3,-24,23,44,15,19,23,25,53
8,31,23,-7,-18,27,45,17,22,25,26,55
7,31,26,-9,-17,28,45,18,23,26,26,56
2,31,29,-14,-14,30,46,20,24,28,27,57
-1,31,33,-17,-13,31,46,21,25,29,27,59
-2,32,35,-18,-13,33,47,22,26,32,28,60
-1,34,36,-18,-16,35,48,24,27,33,29,62
2,38,37,-16,-19,37,49,26,30,35,30,64
6,41,36,-14,-23,39,50,28,33,37,33,67
10,45,36,-12,-26,40,50,30,35,39,35,68
12,47,35,-11,-28,41,50,32,37,42,38,70
13,48,35,-10,-29,41,50,33,38,44,40,72
13,48,35,-10,-30,41,50,34,39,47,43,75
13,49,36,-11,-30,42,51,35,40,50,46,77
13,50,37,-11,-31,44,53,36,41,53,48,80
14,54,40,-12,-33,47,55,37,42,56,51,83
15,57,41,-12,-36,50,57,39,44,58,53,85
16,58,42,-12,-37,50,57,39,44,59,55,86
17,58,42,-12,-37,50,57,38,44,58,55,86
17,58,42,-12,-37,50,56,38,43,58,55,85
18,60,42,-12,-38,51,56,39,42,57,55,84
19,63,44,-12,-40,53,56,40,43,58,56,84
21,66,45,-12,-42,56,55,42,45,59,58,84
22,67,46,-11,-43,57,55,44,47,61,60,85
22,68,47,-12,-44,57,54,45,49,63,62,86
22,68,46,-12,-43,57,54,45,50,64,62,87
21,67,46,-12,-43,57,53,46,51,64,62,88
21,67,46,-13,-42,57,53,46,51,64,62,88
21,67,47,-13,-42,57,52,46,51,64,63,88
21,68,48,-13,-42,58,52,46,51,64,64,87
21,69,49,-14,-43,59,52,46,51,65,66,88
21,70,48,-13,-44,59,52,46,51,65,67,88
24,70,46,-10,-45,58,52,45,50,65,67,89
26,70,43,-7,-46,57,52,43,48,64,67,89
28,69,42,-6,-46,56,51,42,47,63,67,88
26,68,43,-8,-45,56,50,43,47,62,67,88
23,67,44,-10,-43,56,50,43,47,62,66,87
20,65,46,-13,-41,56,49,42,46,61,65,86
18,63,46,-14,-39,54,48,40,45,59,64,85
18,62,45,-14,-38,53,47,39,44,58,63,83
19,61,43,-12,-38,52,47,37,42,56,62,82
20,59,41,-10,-38,50,46,36,41,56,60,81
19,58,40,-10,-37,50,46,35,40,55,59,80
17,57,40,-11,-35,50,45,34,38,55,58,79
16,57,41,-11,-35,50,45,34,38,55,58,79
18,58,40,-10,-36,49,45,33,37,54,57,78
20,59,39,-8,-38,49,45,32,37,54,57,77
23,59,36,-6,-40,47,45,32,36,53,56,76
25,60,34,-4,-41,47,44,31,36,52,56,75
26,61,34,-4,-42,47,44,31,35,51,55,74
26,61,36,-4,-42,49,44,32,35,51,55,73
24,62,40,-7,-41,51,44,32,35,51,54,72
21,61,42,-10,-39,51,43,32,35,50,52,71
18,59,42,-12,-37,50,41,32,35,49,51,70
15,56,42,-14,-34,49,40,32,35,48,49,69
12,54,43,-15,-32,49,39,32,34,47,48,68
9,53,44,-17,-30,49,38,31,34,46,47,67
7,53,46,-18,-29,49,37,31,34,47,47,66
8,54,45,-17,-30,50,36,30,34,47,47,65
10,54,44,-15,-32,48,34,29,34,47,46,64
12,53,41,-13,-32,46,30,27,32,45,44,62
13,50,37,-11,-31,43,27,25,30,43,41,59
14,47,34,-9,-29,40,24,23,27,40,39,56
14,44,31,-8,-28,38,23,24,26,38,38,54
13,42,29,-8,-26,36,23,24,25,37,38,53
12,40,28,-9,-25,34,23,24,25,37,38,53
10,38,28,-10,-23,33,25,25,25,37,38,53
10,36,28,-9,-22,32,26,25,25,37,38,53
10,36,28,-9,-22,32,27,25,24,36,38,53
12,37,28,-8,-23,33,28,26,25,37,38,54
12,39,29,-9,-24,35,30,28,27,38,40,56
12,43,32,-11,-26,38,35,31,30,40,43,58
15,49,35,-11,-31,42,39,34,34,43,47,61
20,57,38,-10,-37,47,43,38,38,46,51,64
25,64,39,-8,-44,51,46,40,41,49,54,67
29,69,40,-7,-48,54,48,40,43,51,55,69
31,72,42,-6,-51,57,50,41,44,53,55,70
32,76,45,-7,-53,61,52,42,45,54,55,71
32,81,50,-9,-55,66,55,44,46,55,56,72
33,87,56,-12,-59,71,58,46,48,57,57,73
34,95,62,-14,-64,78,63,49,51,59,59,74
36,102,66,-16,-68,84,68,53,54,62,61,76
36,108,71,-18,-71,89,72,57,58,64,63,78
36,112,75,-20,-73,93,74,59,60,66,65,79
37,115,78,-21,-75,96,75,60,61,66,66,80
39,117,79,-20,-77,98,74,60,61,65,66,80
40,120,79,-20,-79,99,74,60,60,65,66,80
41,121,80,-20,-80,101,74,61,60,65,67,80
41,122,80,-19,-80,101,73,62,60,65,67,79
41,121,79,-19,-80,100,73,61,60,65,67,80
41,120,79,-19,-79,100,73,59,60,65,66,81
40,120,80,-20,-78,100,73,58,61,65,66,83
39,121,81,-21,-78,102,73,57,61,66,67,86
41,124,83,-21,-81,103,73,57,61,68,68,88
45,127,84,-18,-85,106,72,58,62,71,70,91
51,132,83,-16,-91,108,70,60,64,74,73,95
56,138,83,-13,-96,111,67,62,66,78,76,98
60,143,82,-12,-101,114,65,63,67,80,79,101
63,148,84,-11,-105,117,62,65,69,83,83,104
67,153,86,-10,-109,120,59,67,71,85,86,106
70,157,87,-9,-112,122,55,68,72,88,89,107
72,160,88,-8,-115,123,51,68,73,89,89,108
73,161,88,-8,-116,124,47,67,72,89,89,108
74,161,87,-6,-117,124,44,66,71,88,87,107
76,162,87,-6,-118,125,41,64,69,87,85,105
77,164,87,-5,-119,125,38,62,67,85,84,104
77,164,87,-5,-119,124,35,60,65,84,82,102
76,162,86,-5,-118,123,32,58,63,82,81,101
74,158,85,-5,-115,120,29,56,60,80,79,98
75,155,81,-3,-114,117,28,54,58,77,78,96
78,152,75,1,-114,113,25,53,57,76,78,94
82,149,68,7,-114,108,23,51,56,74,77,92
85,143,59,13,-113,101,20,50,54,74,76,90
85,135,51,17,-109,92,18,48,52,71,74,87
81,124,43,19,-102,83,16,47,50,69,71,83
77,113,36,20,-94,74,14,46,48,66,68,79
73,102,29,22,-86,65,12,44,45,62,65,75
69,92,24,23,-79,57,11,42,43,59,62,70
64,83,20,22,-72,51,11,40,40,55,58,66
57,75,19,20,-64,46,12,38,38,51,54,61
48,66,18,15,-56,41,13,35,34,47,50,57
39,56,17,12,-47,37,13,31,30,42,45,52
31,47,16,8,-38,32,13,25,25,37,40,47
24,39,15,5,-31,27,11,20,20,31,35,42
20,33,14,4,-26,23,10,16,15,26,29,37
17,29,12,2,-22,21,8,13,11,21,24,32
14,25,10,2,-19,18,6,9,7,17,20,27
11,20,8,1,-15,13,3,6,3,13,16,23
8,14,6,1,-11,9,1,3,1,10,12,17
4,9,4,0,-7,6,0,2,-1,6,9,13
1,4,3,-1,-3,3,-2,0,-2,4,6,10
1,2,2,-1,-1,2,-2,-1,-3,3,4,8
2,3,2,-1,-2,3,-2,-1,-2,3,4,7
5,7,3,1,-6,6,-1,0,-1,4,5,7
8,12,5,2,-10,8,0,1,0,4,6,8
11,16,6,3,-13,11,2,2,1,5,7,9
14,20,6,3,-16,13,3,3,2,6,8,10
16,22,7,4,-18,14,3,3,2,6,9,10
17,23,7,4,-19,15,3,3,3,6,9,10
16,22,7,4,-19,15,2,3,2,6,8,9
14,21,9,3,-17,15,2,2,1,6,8,8
11,19,10,1,-15,14,1,1,0,6,7,6
8,16,8,0,-12,12,0,-1,-2,5,5,5
5,12,7,-1,-9,10,-2,-3,-4,3,3,3
2,8,5,-2,-5,7,-4,-5,-5,1,1,1
-1,3,4,-3,-1,4,-5,-6,-6,0,0,0
-3,0,3,-3,2,2,-5,-6,-5,-1,-1,0
-1,-2,1,-1,2,1,-2,-4,-4,0,-1,0
0,0,0,0,0,0,0,0,0,0,0,0
3,3,-1,2,-3,1,4,6,5,1,1,2
7,3,-3,4,-5,0,8,12,11,2,2,4
8,5,-4,5,-6,1,12,21,19,4,4,7
12,5,-5,7,-8,1,17,29,26,1,2,7
6,16,8,0,-11,11,24,48,44,15,16,17
2,26,23,-11,-14,25,32,70,64,31,35,34
22,55,32,-5,-37,43,31,94,90,58,66,62
47,86,40,3,-67,64,28,126,117,90,100,99
74,115,39,17,-93,77,16,158,149,136,149,149
105,145,39,32,-125,93,1,195,180,189,205,208
152,174,21,66,-163,97,-20,211,198,240,259,278
205,203,-3,104,-205,101,-44,226,212,298,318,356
275,256,-20,146,-265,118,-67,248,230,364,389,448
350,312,-38,195,-330,138,-90,270,246,435,464,550
417,394,-24,218,-406,186,-109,293,266,525,554,663
485,483,-1,243,-483,240,-129,316,284,615,644,783
533,571,37,249,-554,305,-141,326,295,699,727,907
581,669,85,246,-625,378,-153,331,302,786,812,1026
596,686,89,253,-640,389,-158,318,288,822,835,1053
598,696,98,250,-648,396,-159,299,271,849,852,1065
567,679,111,226,-622,396,-146,249,227,790,784,985
518,644,126,195,-582,385,-131,189,174,712,692,875
442,601,160,142,-521,381,-118,110,103,598,573,751
349,533,185,81,-441,360,-103,14,17,454,427,595
261,442,178,41,-352,309,-93,-73,-68,314,280,443
169,331,163,4,-249,247,-86,-172,-163,151,114,269
100,245,143,-22,-172,194,-74,-226,-220,30,1,139
36,165,130,-47,-101,147,-65,-275,-271,-89,-109,19
-12,123,134,-73,-54,130,-51,-299,-294,-160,-173,-55
-48,101,150,-99,-27,125,-38,-305,-304,-203,-210,-95
-65,96,160,-114,-14,129,-32,-296,-299,-217,-221,-106
-70,103,172,-121,-17,136,-28,-272,-276,-204,-200,-94
-58,114,173,-116,-28,143,-28,-235,-239,-172,-165,-69
-41,125,166,-105,-43,147,-28,-191,-194,-131,-118,-44
-35,114,147,-92,-40,129,-29,-150,-156,-95,-83,-30
-28,92,121,-74,-32,106,-32,-114,-119,-68,-61,-29
-26,79,106,-66,-27,91,-23,-93,-97,-55,-53,-36
-28,64,90,-61,-18,78,-16,-79,-81,-53,-55,-50
-26,54,81,-54,-14,67,-10,-74,-71,-59,-62,-60
-28,47,73,-51,-10,60,-7,-67,-65,-64,-65,-62
-30,42,71,-52,-7,56,-3,-58,-57,-62,-58,-54
-32,43,75,-52,-5,57,4,-42,-45,-47,-44,-40
-21,50,72,-48,-13,60,8,-27,-29,-28,-25,-21
-8,59,66,-37,-27,64,14,-9,-11,-6,-2,-3
1,60,61,-31,-30,61,20,2,0,9,13,9
9,60,52,-22,-34,56,22,9,8,20,23,10
9,49,43,-16,-29,45,22,9,9,20,21,6
8,38,30,-11,-23,36,20,9,5,12,12,-4
6,29,24,-8,-18,26,17,2,1,4,5,-16
4,21,16,-7,-12,20,14,-3,-2,-1,-2,-22
3,31,28,-13,-18,30,18,6,3,6,8,-9
0,31,31,-16,-17,32,19,8,5,9,12,-6
0,32,32,-17,-17,33,19,11,7,13,17,-2
2,36,33,-17,-21,35,22,14,10,17,22,2
7,40,32,-14,-25,37,24,16,12,20,25,4
11,43,31,-12,-28,38,26,17,13,20,26,4
13,45,31,-11,-31,39,28,17,14,20,26,3
16,47,31,-9,-33,39,29,16,14,18,24,2
18,48,29,-7,-35,39,30,14,14,16,23,2
20,49,27,-5,-36,38,30,14,14,16,22,3
22,49,25,-2,-37,37,29,14,14,17,24,6
25,49,22,1,-38,35,29,15,15,19,26,10
30,50,18,5,-41,34,29,16,16,21,29,12
33,50,16,8,-43,33,29,17,17,24,31,15
34,51,14,9,-44,33,28,18,19,26,33,17
35,51,14,10,-44,32,29,19,21,27,33,18
34,50,14,9,-43,32,29,21,22,28,34,18
33,49,14,9,-42,31,29,22,23,29,33,18
32,47,13,8,-41,30,28,23,23,29,33,18
32,46,12,9,-40,29,27,23,23,30,33,19
34,46,10,11,-41,28,26,23,24,31,33,20
34,46,10,11,-42,28,25,23,24,32,34,22
35,48,11,11,-43,30,24,23,25,33,35,23
33,48,13,9,-42,31,23,24,26,35,36,24
28,46,16,5,-39,31,23,24,27,36,37,25
25,45,18,3,-37,32,23,24,28,38,38,25
24,44,19,2,-36,32,23,26,29,39,40,27
25,45,19,2,-37,33,24,28,30,40,41,28
27,48,20,3,-39,34,25,30,32,41,42,29
29,51,20,3,-41,36,26,32,33,42,43,30
30,53,21,4,-43,38,28,34,35,43,44,30
31,55,23,3,-44,39,30,35,36,45,45,31
31,57,24,2,-45,41,31,37,37,47,47,32
32,59,26,2,-47,43,34,39,40,49,49,33
32,62,29,0,-49,46,36,40,42,51,51,35
33,66,31,0,-51,49,38,41,43,53,53,36
35,70,34,0,-54,52,39,42,45,54,55,37
38,74,35,0,-57,55,39,42,45,55,56,37
42,77,34,3,-61,56,38,42,45,55,57,36
45,78,33,4,-63,56,36,42,45,55,58,35
46,79,32,6,-64,56,35,42,45,54,58,35
46,78,31,6,-63,55,32,42,45,54,58,34
43,75,32,5,-61,54,29,42,45,54,58,34
41,73,32,3,-58,53,26,42,45,54,58,34
38,71,33,1,-55,53,23,42,45,54,58,34
37,71,35,0,-55,54,22,44,46,55,59,35
39,75,36,0,-58,56,22,46,48,57,61,38
42,78,37,1,-61,59,22,48,50,59,63,41
44,81,38,2,-64,61,23,51,53,62,65,45
45,83,38,2,-65,62,24,53,55,65,67,48
44,83,39,1,-65,62,24,55,58,67,69,50
44,84,40,1,-66,63,25,57,60,69,71,54
46,87,41,2,-68,65,26,60,63,71,73,57
50,92,41,3,-72,67,27,63,66,74,76,61
56,98,42,6,-78,71,28,67,70,78,81,65
61,103,42,9,-83,73,28,70,73,82,85,69
66,108,42,11,-88,75,27,73,77,86,91,73
69,111,42,12,-91,77,25,75,80,90,95,76
69,113,44,11,-92,79,24,77,82,93,98,79
70,116,46,11,-94,81,23,79,85,95,100,81
73,120,47,12,-97,84,22,80,86,96,102,81
77,125,47,14,-102,86,21,83,88,98,104,82
85,131,46,18,-109,89,21,85,90,99,105,83
90,137,46,21,-114,91,21,87,92,101,107,84
93,140,47,22,-117,93,21,89,94,102,109,86
95,142,47,23,-119,94,20,90,95,103,110,87
96,142,46,24,-119,94,19,91,96,103,110,87
96,142,46,24,-120,94,19,92,96,104,110,87
98,145,46,25,-122,95,19,94,98,104,109,87
99,147,47,25,-124,97,19,96,99,104,108,87
100,150,48,25,-126,99,18,97,100,105,108,87
102,153,49,25,-129,101,17,98,100,105,108,88
105,156,49,26,-132,102,16,98,101,105,109,89
108,160,50,28,-135,105,16,100,102,106,110,92
112,165,52,28,-139,108,17,102,103,108,112,96
117,171,52,31,-145,111,18,104,105,111,115,101
125,177,51,35,-151,114,19,106,106,114,119,107
131,181,49,40,-157,115,19,108,107,118,123,112
136,184,46,44,-161,115,18,110,108,121,126,117
139,185,45,46,-163,115,17,111,109,123,130,120
139,185,45,46,-163,115,16,113,110,125,132,122
138,184,45,46,-162,115,15,114,111,126,133,122
137,183,46,45,-161,115,13,114,112,125,132,122
136,183,46,44,-160,115,10,114,112,124,131,121
136,183,46,44,-160,115,8,113,112,122,129,120
136,183,46,44,-160,115,6,112,112,121,128,119
134,183,48,43,-159,116,5,111,111,119,127,118
133,182,49,41,-158,116,5,111,111,118,127,117
131,182,50,40,-157,117,5,111,111,118,127,117
130,181,50,40,-156,117,5,111,110,118,127,117
132,180,48,41,-157,116,5,111,109,118,127,117
132,180,47,41,-156,115,6,110,109,119,127,118
130,178,47,40,-154,114,7,110,109,119,127,118
129,177,48,39,-153,113,9,111,110,120,128,118
127,176,49,38,-152,113,11,111,110,121,129,119
127,176,50,38,-152,113,13,111,109,121,129,118
127,177,50,38,-153,113,13,110,108,121,129,117
126,176,49,38,-152,113,12,108,106,120,128,115
125,174,49,37,-150,112,11,106,105,117,126,112
122,171,49,36,-147,110,10,102,102,114,123,108
118,167,49,34,-143,108,10,99,100,110,119,104
115,164,49,33,-140,106,10,96,97,106,115,100
112,160,48,32,-137,105,11,92,95,103,111,96
108,156,48,30,-133,103,12,90,92,101,108,94
104,152,48,28,-129,100,13,87,90,99,106,92
97,145,48,24,-122,97,13,84,88,98,103,90
87,137,49,19,-113,93,13,81,86,96,100,87
79,129,50,14,-105,90,13,77,83,93,97,85
72,122,51,10,-98,87,15,73,80,91,94,83
67,118,51,7,-94,85,17,70,78,89,91,81
65,116,51,7,-92,84,20,67,75,87,89,79
64,114,50,6,-90,83,24,64,72,85,86,78
63,112,49,6,-89,81,26,61,69,83,84,76
61,110,49,5,-86,80,29,57,65,80,81,74
57,106,49,3,-82,78,30,54,62,77,77,70
52,101,49,0,-77,75,31,50,58,73,73,66
45,94,50,-4,-70,72,32,47,55,69,69,61
38,88,50,-7,-63,69,33,44,52,65,66,56
32,82,50,-10,-57,66,33,41,49,61,62,51
27,76,49,-12,-52,63,32,39,46,58,59,47
25,72,47,-12,-49,60,31,36,43,55,55,43
22,68,46,-13,-46,57,30,34,39,51,52,39
18,64,45,-14,-42,55,28,30,35,47,48,35
16,61,45,-15,-39,53,27,27,31,43,44,31
14,59,44,-16,-38,52,26,24,28,39,41,27
15,59,44,-15,-38,51,25,21,26,37,38,25
16,60,43,-14,-39,52,25,19,23,34,35,23
16,60,43,-14,-40,52,25,17,22,32,33,22
15,59,43,-15,-39,52,25,16,20,31,31,21
14,58,43,-15,-38,51,26,16,19,30,30,22
14,57,42,-15,-37,51,26,17,19,30,31,22
15,57,41,-14,-37,50,27,17,19,30,32,23
16,57,40,-13,-38,49,28,18,19,31,32,25
16,57,39,-12,-38,49,28,18,19,31,33,26
16,56,38,-12,-38,48,28,18,19,31,32,28
15,55,38,-12,-37,47,29,19,19,32,32,30
13,53,39,-14,-35,47,29,19,20,33,33,31
10,53,41,-16,-33,48,30,20,21,34,33,32
7,52,43,-18,-32,49,31,21,22,35,34,33
6,52,45,-20,-31,50,31,21,22,35,34,33
7,53,45,-20,-32,50,31,20,21,34,33,32
8,54,44,-19,-33,50,31,19,20,33,32,31
9,54,44,-18,-33,50,30,17,18,31,29,29
10,55,43,-18,-34,50,29,16,16,28,27,27
10,55,43,-17,-34,50,28,14,15,26,26,25
12,55,42,-16,-35,49,27,13,14,23,24,23
14,56,41,-15,-36,49,26,12,12,21,22,21
15,56,39,-14,-37,48,25,11,11,19,21,19
14,54,38,-13,-35,47,24,10,10,17,18,17
13,52,37,-13,-34,45,24,8,9,16,17,15
11,48,35,-13,-31,43,25,7,8,16,15,14
10,46,35,-13,-29,41,26,7,9,16,15,13
9,45,34,-14,-28,40,28,7,9,16,16,14
8,43,34,-14,-27,39,29,8,10,17,17,15
7,43,34,-14,-26,39,31,9,11,18,18,16
8,43,34,-14,-26,38,32,10,12,20,20,18
9,44,34,-14,-27,39,33,11,13,21,22,19
10,46,34,-13,-29,40,34,12,14,22,23,21
11,48,35,-13,-31,42,35,13,15,23,24,23
12,50,37,-13,-32,43,35,14,16,24,25,24
11,51,38,-14,-33,45,35,15,17,25,26,25
11,52,40,-15,-33,46,34,16,18,25,26,26
10,53,41,-16,-33,47,33,16,18,25,26,27
10,54,42,-16,-33,48,32,17,19,26,26,27
12,55,42,-16,-35,49,32,18,20,27,27,28
13,57,42,-15,-37,50,31,20,21,28,27,28
15,59,43,-14,-39,51,31,21,21,29,28,29
16,61,44,-14,-40,53,31,22,22,31,29,30
17,64,46,-14,-42,55,30,23,23,32,30,30
18,66,48,-15,-43,57,30,23,23,33,31,31
18,69,50,-16,-45,60,29,24,24,34,32,32
18,71,52,-17,-46,62,28,24,24,34,33,32
18,73,55,-18,-47,64,28,25,25,35,34,33
18,74,57,-19,-47,66,28,27,27,36,35,33
17,75,58,-21,-47,67,28,28,28,37,37,34
15,74,59,-22,-46,67,28,29,29,38,38,34
14,73,59,-22,-45,67,28,29,30,39,39,35
13,71,57,-22,-44,65,28,30,31,40,41,36
14,70,55,-21,-43,64,28,30,32,41,42,38
15,70,54,-19,-44,63,29,31,34,42,44,40
17,70,52,-18,-45,62,30,33,35,44,47,43
18,71,52,-17,-46,62,30,34,37,46,49,46
19,72,52,-16,-47,63,31,35,39,48,52,49
19,73,53,-17,-48,64,32,36,40,50,53,51
19,75,55,-18,-48,66,32,37,41,51,55,54
19,76,57,-19,-49,68,33,38,42,53,56,56
19,78,59,-20,-50,69,33,39,43,54,57,58
20,81,60,-20,-52,71,33,40,44,56,58,60
22,83,61,-19,-54,73,34,40,45,58,60,61
24,86,61,-19,-57,75,34,41,46,59,61,63
26,88,62,-18,-58,76,33,41,46,60,61,64
26,89,62,-19,-59,77,32,40,46,61,61,64
25,89,64,-20,-59,77,31,40,46,61,61,65
23,89,66,-22,-57,78,30,39,45,61,60,65
20,89,68,-25,-56,79,28,39,44,60,60,65
18,88,70,-27,-54,79,27,38,43,60,60,65
16,88,71,-28,-53,80,27,37,42,60,59,64
16,88,70,-28,-53,80,26,36,40,59,59,63
17,87,69,-26,-53,79,25,35,38,58,58,62
19,87,67,-24,-54,78,25,34,37,57,57,61
20,87,65,-23,-54,77,24,33,35,55,56,59
21,86,64,-22,-54,76,24,33,34,54,55,58
21,84,63,-21,-54,75,24,33,34,53,54,56
20,83,62,-21,-53,73,24,33,33,52,53,55
19,81,61,-21,-51,72,24,33,33,51,53,54
19,80,60,-21,-50,71,24,32,33,50,52,53
19,79,59,-20,-50,70,24,32,33,50,51,53
19,78,57,-20,-49,69,24,31,33,49,51,52
20,77,56,-19,-49,68,24,30,33,49,49,52
20,77,55,-19,-49,67,24,29,32,48,48,51
21,76,55,-19,-49,66,24,28,31,47,47,51
21,75,54,-18,-49,66,23,26,29,46,45,50
22,75,52,-17,-49,64,23,25,27,44,43,49
23,74,50,-15,-50,63,23,23,25,42,41,48
24,73,48,-13,-50,62,22,22,23,40,39,46
25,73,47,-12,-50,61,21,21,22,38,37,45
25,71,46,-11,-49,60,20,20,21,36,35,43
24,69,45,-11,-48,59,18,19,20,35,33,42
22,67,46,-12,-45,58,17,19,21,34,32,41
19,64,46,-14,-43,57,16,20,21,34,32,41
17,62,46,-15,-41,56,16,21,22,34,32,41
16,61,47,-16,-40,56,16,22,23,35,33,42
16,62,47,-16,-40,56,18,23,24,36,34,43
18,65,48,-16,-42,58,20,25,26,37,36,44
20,69,49,-15,-45,60,22,27,28,39,38,46
22,73,52,-15,-48,64,25,30,30,42,41,48
24,78,55,-16,-52,68,28,32,33,44,43,50
24,82,59,-18,-54,72,31,35,35,46,45,52
24,86,63,-20,-56,76,33,37,37,47,46,53
23,89,67,-23,-57,79,36,38,39,48,46,53
21,92,72,-26,-58,83,38,39,41,48,47,54
20,95,76,-29,-59,87,40,41,43,49,47,54
19,99,81,-31,-61,91,42,43,45,51,48,55
20,103,84,-33,-63,95,45,45,47,53,50,56
21,107,87,-34,-66,98,47,47,48,55,52,57
22,111,90,-34,-68,102,50,49,50,57,54,59
23,115,92,-35,-71,105,53,51,52,58,56,60
24,120,95,-36,-74,109,55,53,53,60,58,62
25,124,99,-37,-76,112,58,55,54,62,60,63
25,128,103,-39,-78,116,59,56,56,63,62,65
24,132,107,-42,-79,120,60,57,57,65,63,66
23,135,111,-45,-80,123,60,58,58,66,64,67
22,138,115,-47,-81,126,58,58,59,67,65,68
22,140,118,-48,-82,129,56,58,59,68,66,70
23,143,119,-48,-84,131,54,58,60,69,67,71
26,146,120,-47,-87,133,51,58,61,70,68,73
29,150,120,-46,-90,135,49,60,62,71,70,75
33,154,120,-44,-94,138,47,61,63,73,72,78
38,159,120,-42,-99,140,45,63,65,75,74,81
43,165,120,-39,-104,143,44,65,67,78,77,85
50,170,120,-36,-110,146,43,67,68,80,80,89
56,176,119,-32,-117,148,42,68,70,82,83,92
62,181,118,-29,-122,150,42,69,71,84,85,95
67,186,118,-26,-127,152,41,69,71,85,87,97
71,189,117,-24,-131,154,40,68,71,86,87,99
74,191,117,-23,-133,155,39,67,70,86,87,99
75,192,116,-21,-134,155,38,65,69,85,86,99
76,191,114,-20,-134,153,36,63,67,84,85,98
76,188,111,-18,-133,151,34,60,65,82,83,96
76,184,107,-16,-131,146,31,57,62,79,80,94
75,178,102,-13,-128,141,28,54,59,76,77,91
74,170,95,-11,-123,134,26,51,56,73,73,87
72,161,88,-8,-118,126,23,48,53,69,70,84
69,151,81,-6,-111,117,21,45,50,66,66,80
65,139,74,-4,-103,108,20,42,47,62,62,76
60,128,68,-4,-95,99,19,40,44,59,59,72
54,116,62,-4,-86,90,18,37,42,56,55,67
48,104,56,-4,-77,81,17,34,39,53,52,63
43,94,51,-5,-69,74,16,32,36,49,48,58
37,85,47,-5,-61,67,15,29,33,45,44,53
32,76,43,-6,-55,61,15,25,29,41,40,48
28,68,40,-6,-48,55,15,22,26,36,35,42
23,60,37,-7,-42,50,15,18,22,31,31,37
19,53,33,-7,-37,44,14,14,18,26,26,31
16,46,30,-7,-31,39,13,10,14,21,21,25
14,40,26,-6,-27,34,11,7,10,16,17,20
12,34,22,-5,-24,29,10,4,7,12,13,15
11,29,18,-4,-20,25,9,1,4,8,9,11
10,24,15,-3,-17,21,7,-1,2,5,6,7
8,19,11,-2,-14,17,6,-3,0,3,4,5
6,15,8,-2,-11,13,4,-4,-1,1,2,3
4,11,6,-2,-8,10,3,-6,-3,0,0,1
2,7,5,-3,-5,8,2,-7,-4,-1,-1,0
-1,5,5,-4,-3,6,0,-8,-5,-2,-2,-1
-3,3,5,-5,-1,6,-1,-9,-6,-2,-3,-1
-5,2,6,-7,1,5,-2,-10,-7,-3,-3,-2
-7,1,7,-8,2,5,-3,-11,-7,-3,-4,-2
-8,-1,7,-8,4,4,-4,-12,-8,-3,-4,-2
-9,-3,6,-8,6,2,-5,-13,-10,-5,-5,-2
-11,-6,5,-8,8,0,-6,-15,-11,-6,-6,-2
-12,-8,3,-8,10,-2,-7,-15,-12,-7,-7,-2
-12,-10,2,-7,11,-3,-7,-15,-13,-8,-7,-2
-11,-10,1,-6,10,-4,-7,-15,-13,-8,-6,-2
-10,-9,1,-5,9,-3,-7,-13,-12,-7,-5,-1
-8,-7,1,-4,7,-3,-6,-12,-11,-6,-4,-1
-6,-5,1,-3,5,-2,-6,-10,-10,-4,-3,0
-5,-4,1,-3,3,-1,-5,-8,-8,-3,-2,0
-1,0,2,-1,1,1,-4,-7,-7,0,0,2
-2,0,3,-2,0,2,-2,-4,-4,1,0,1
0,0,0,0,0,0,0,0,0,0,0,0
3,0,-3,3,-1,-1,3,6,6,1,1,0
7,1,-6,7,-4,-2,8,15,14,3,2,-1
10,3,-6,8,-7,0,14,27,25,6,5,0
14,6,-6,10,-10,2,23,39,35,7,3,-1
15,14,0,8,-15,9,23,57,51,17,16,7
14,22,8,4,-18,16,21,73,71,27,25,23
24,49,24,0,-36,38,20,105,98,56,60,54
37,81,47,-4,-59,65,16,138,130,92,101,99
73,116,44,15,-94,83,5,170,163,149,162,161
114,156,43,36,-135,101,-8,204,196,214,231,238
155,202,47,55,-177,125,-28,226,214,282,300,331
204,252,49,79,-229,151,-56,246,230,356,376,437
259,311,54,103,-284,184,-74,274,255,444,464,556
315,370,56,131,-342,215,-93,300,274,533,558,685
378,457,80,150,-416,269,-113,316,292,635,658,819
437,548,111,165,-492,330,-131,329,303,737,757,965
461,632,171,145,-547,403,-138,340,311,829,849,1090
477,723,247,116,-601,488,-145,350,316,919,936,1216
473,724,253,110,-599,489,-149,325,296,953,956,1232
459,715,257,102,-587,488,-151,294,271,975,965,1233
414,676,263,75,-545,470,-148,227,208,890,864,1111
355,618,264,46,-486,441,-143,146,135,776,735,950
280,566,286,0,-424,428,-133,64,60,630,589,798
197,491,295,-49,-343,395,-123,-39,-27,452,412,610
135,400,266,-65,-266,334,-111,-124,-114,293,253,435
75,297,223,-73,-185,261,-97,-220,-207,110,73,242
21,210,187,-82,-113,199,-89,-273,-259,-15,-47,99
-25,134,159,-91,-55,148,-79,-317,-302,-132,-155,-23
-59,101,159,-108,-21,130,-65,-335,-323,-207,-221,-97
-80,92,172,-124,-5,131,-50,-335,-326,-245,-252,-133
-83,96,179,-131,-4,138,-46,-315,-310,-253,-252,-134
-79,110,190,-133,-15,151,-41,-276,-278,-229,-222,-107
-64,124,186,-124,-28,154,-40,-231,-235,-183,-172,-71
-46,130,174,-108,-41,153,-37,-183,-190,-131,-118,-36
-29,125,153,-92,-48,140,-36,-139,-145,-81,-73,-15
-12,112,126,-68,-50,120,-35,-104,-107,-48,-43,-7
-15,88,103,-58,-37,95,-32,-91,-93,-42,-42,-22
-19,64,85,-53,-21,75,-28,-82,-83,-50,-52,-41
-19,54,71,-45,-18,65,-28,-78,-76,-62,-64,-57
-13,51,68,-38,-19,60,-26,-69,-67,-67,-69,-64
-4,57,61,-31,-26,60,-21,-57,-55,-66,-64,-55
6,63,58,-26,-34,62,-15,-39,-43,-54,-48,-35
5,69,65,-29,-37,68,-9,-17,-20,-27,-21,-12
-2,69,70,-35,-34,71,-2,1,0,2,7,7
0,58,60,-29,-29,60,-6,10,10,19,23,16
3,45,43,-19,-24,45,-9,11,14,27,27,13
2,39,36,-16,-18,37,-11,14,16,29,24,6
0,30,31,-14,-14,31,-12,13,16,23,16,-2
8,27,17,-4,-15,22,-13,10,15,11,7,-11
17,25,7,5,-20,16,-15,8,13,2,-1,-14
5,26,21,-8,-15,24,-11,18,20,18,16,5
3,26,22,-10,-14,25,-11,21,23,24,22,12
-1,25,25,-13,-12,25,-11,24,25,30,28,19
-4,24,28,-17,-10,26,-11,27,27,35,34,24
-5,24,28,-17,-10,26,-10,29,28,37,36,26
-5,23,27,-17,-9,25,-8,31,29,37,36,26
-5,23,27,-16,-9,25,-6,32,31,35,35,26
-4,22,26,-15,-9,24,-5,32,32,34,34,25
-4,22,25,-15,-9,23,-4,33,32,33,33,26
-2,23,24,-13,-11,23,-4,34,34,34,35,28
1,25,24,-12,-13,24,-4,36,36,36,38,33
4,29,24,-10,-17,26,-4,38,38,39,41,37
7,32,24,-9,-20,28,-5,40,40,43,46,41
10,36,24,-8,-24,30,-6,42,42,46,49,44
12,38,25,-6,-26,31,-7,43,43,49,51,45
13,38,24,-6,-27,31,-8,44,45,49,52,45
13,36,23,-6,-26,29,-11,44,45,50,52,44
11,33,22,-6,-23,28,-13,44,46,49,52,43
9,30,21,-7,-20,26,-15,44,46,48,52,43
9,29,20,-6,-20,25,-16,44,47,48,52,44
12,32,19,-4,-22,27,-17,45,48,49,53,45
15,35,19,-3,-25,28,-17,46,49,51,55,46
18,38,19,-1,-28,30,-18,47,49,53,56,47
20,42,21,-1,-31,33,-17,48,51,55,57,49
20,46,26,-4,-33,37,-15,50,53,58,59,52
22,51,29,-5,-36,41,-12,53,56,61,62,55
26,57,31,-3,-42,46,-10,56,59,65,66,59
30,62,31,-2,-46,49,-8,58,62,69,69,62
33,64,29,1,-49,49,-9,59,63,71,71,63
34,63,28,2,-50,48,-11,59,64,72,72,64
32,61,27,2,-48,46,-13,60,65,73,72,63
29,58,28,0,-45,45,-14,61,65,73,72,63
26,56,30,-3,-43,45,-15,62,66,74,73,64
24,56,32,-5,-42,46,-16,63,67,75,74,64
25,59,33,-5,-44,48,-17,64,68,77,75,65
27,62,35,-5,-46,50,-18,66,69,78,77,66
29,65,36,-5,-49,52,-19,67,69,79,78,67
29,67,38,-5,-50,54,-20,68,70,80,80,68
28,69,41,-8,-50,56,-21,70,71,81,82,70
28,71,43,-9,-51,58,-21,71,72,83,85,72
30,74,44,-8,-53,60,-21,73,75,86,88,75
34,77,43,-6,-56,61,-22,76,77,89,91,78
38,79,41,-2,-59,61,-23,78,80,92,94,81
41,81,40,0,-61,61,-24,80,83,95,97,84
42,81,39,1,-62,60,-25,81,85,97,99,87
43,82,39,2,-63,60,-26,83,87,100,102,89
45,84,39,3,-65,61,-27,84,89,102,104,91
47,86,39,4,-67,63,-27,86,90,104,106,92
49,88,39,5,-69,64,-28,87,91,105,107,93
51,91,40,6,-72,65,-28,88,93,107,108,94
53,94,41,7,-74,68,-28,89,94,109,109,95
55,98,43,7,-77,70,-29,90,96,110,110,96
56,102,46,6,-80,74,-31,91,98,112,112,98
57,105,49,5,-82,77,-33,93,100,113,114,100
56,107,51,3,-83,79,-35,96,102,115,117,103
56,109,53,2,-84,81,-37,99,104,118,120,106
56,111,56,1,-85,83,-38,103,107,121,124,109
56,113,58,-1,-86,86,-39,106,109,125,127,113
56,116,60,-2,-87,88,-40,109,111,128,129,116
57,119,62,-2,-89,91,-40,112,112,130,131,117
59,123,63,-2,-92,94,-40,113,114,130,132,119
61,126,65,-2,-94,96,-40,115,115,131,133,120
61,129,66,-2,-96,98,-39,117,117,133,135,122
62,131,68,-3,-97,100,-40,119,120,135,137,125
63,134,70,-3,-99,102,-41,121,122,137,140,128
64,138,72,-3,-101,105,-42,124,125,140,142,131
67,143,75,-3,-105,109,-43,126,129,143,145,134
70,148,78,-3,-109,113,-45,129,132,146,148,137
72,153,80,-3,-112,116,-47,132,135,149,150,140
75,156,81,-2,-116,119,-50,134,138,152,152,142
79,159,80,0,-119,120,-53,135,139,153,154,144
81,161,80,0,-121,121,-56,135,139,154,154,145
81,161,81,0,-121,121,-59,136,139,154,155,146
80,163,82,-1,-121,123,-61,137,140,155,156,148
81,165,84,-2,-123,125,-63,140,143,157,159,150
83,169,85,-2,-126,127,-64,143,145,160,162,154
88,174,85,1,-131,129,-64,146,148,164,166,158
92,178,85,3,-135,131,-64,148,150,167,169,162
95,181,85,5,-139,133,-63,150,151,169,170,164
98,185,86,6,-142,135,-61,151,152,170,171,165
102,189,86,8,-146,138,-60,152,154,171,172,166
105,193,86,10,-150,139,-58,153,154,172,173,166
110,197,86,12,-154,141,-57,153,155,172,173,166
112,199,86,14,-157,142,-56,152,156,173,173,166
113,201,87,13,-158,143,-56,152,156,172,171,165
113,203,89,13,-159,145,-57,151,155,171,170,164
114,205,90,12,-160,147,-58,151,154,170,170,163
115,207,91,12,-162,149,-59,151,152,168,169,161
118,209,90,14,-163,150,-60,149,151,167,168,159
120,210,90,15,-165,151,-60,148,149,165,166,157
122,212,90,16,-167,152,-60,147,147,163,165,155
123,213,89,17,-168,152,-59,146,146,161,164,154
124,214,90,17,-169,153,-57,147,145,161,163,154
124,214,90,17,-169,153,-55,146,145,161,163,154
122,212,89,17,-167,152,-53,146,145,161,163,155
119,208,89,15,-164,150,-52,145,145,162,163,156
114,202,88,13,-159,147,-52,143,143,162,163,156
109,196,87,11,-153,143,-52,141,142,162,163,156
103,189,86,8,-147,139,-51,139,141,163,163,156
98,182,84,7,-142,135,-51,137,140,163,162,155
95,177,82,6,-137,131,-51,135,139,163,161,153
91,171,80,5,-132,126,-52,133,136,161,158,150
88,165,78,5,-128,122,-52,129,132,158,154,146
84,159,76,3,-122,119,-52,125,127,154,150,142
78,153,77,0,-116,116,-52,121,122,150,146,138
72,148,77,-3,-111,113,-50,117,117,146,142,134
65,142,77,-7,-104,111,-49,112,113,142,139,130
60,137,77,-9,-99,108,-47,108,109,139,135,127
56,133,76,-11,-95,106,-44,104,106,136,132,124
53,129,75,-12,-91,103,-41,100,103,133,130,120
51,125,74,-12,-88,100,-37,97,100,130,127,116
48,120,71,-13,-84,97,-34,94,96,127,124,112
45,114,69,-13,-79,92,-32,90,92,123,121,107
41,109,67,-13,-75,88,-31,86,87,119,117,103
38,104,65,-14,-71,85,-30,82,82,115,113,98
36,101,64,-14,-68,83,-29,78,77,111,109,94
35,99,63,-14,-67,81,-28,73,73,107,106,91
34,96,61,-14,-65,79,-28,69,69,103,102,87
30,92,61,-16,-61,77,-29,64,66,100,99,84
27,89,61,-18,-58,76,-30,60,63,96,95,81
23,86,62,-21,-55,75,-31,56,59,92,91,78
20,84,63,-23,-53,74,-33,52,55,88,86,75
20,84,63,-23,-52,74,-34,49,52,85,83,72
21,84,62,-22,-53,73,-34,47,49,82,79,69
22,83,60,-20,-53,72,-35,44,46,80,76,66
25,83,58,-17,-54,70,-36,42,44,77,73,63
28,83,55,-14,-56,69,-37,40,42,75,71,60
29,82,52,-12,-56,67,-37,38,40,72,68,57
27,79,51,-12,-54,65,-37,36,39,70,66,54
25,75,50,-13,-50,62,-36,34,37,68,64,52
20,70,49,-14,-46,59,-35,32,36,66,63,50
17,66,48,-16,-42,57,-34,31,35,65,62,49
15,63,48,-16,-39,55,-32,30,35,64,61,48
14,61,47,-16,-38,54,-31,29,35,63,60,47
14,60,46,-16,-37,53,-31,29,34,61,59,46
14,60,46,-15,-37,53,-30,30,34,60,58,45
14,61,46,-15,-37,53,-30,30,34,59,57,45
13,60,46,-16,-37,53,-30,30,33,58,56,44
12,59,45,-16,-35,52,-31,29,32,57,55,43
10,57,45,-17,-33,51,-32,27,30,56,53,42
8,54,44,-18,-31,49,-32,26,29,54,52,41
7,52,45,-19,-29,48,-32,26,28,54,51,41
6,53,46,-20,-29,49,-31,26,29,54,51,41
7,54,47,-20,-30,50,-30,28,30,55,52,41
10,55,46,-18,-33,50,-30,30,31,57,53,42
12,57,45,-16,-34,50,-29,32,33,58,55,43
14,57,44,-15,-35,50,-28,34,34,59,56,44
15,57,43,-14,-36,50,-28,36,35,60,57,44
14,58,44,-15,-35,50,-27,37,37,60,58,44
13,58,45,-16,-35,51,-26,38,38,60,58,44
14,60,46,-16,-37,52,-25,39,39,61,59,45
14,61,47,-17,-37,53,-24,39,40,61,59,45
14,62,48,-17,-38,54,-24,39,40,61,59,45
15,63,48,-16,-39,54,-25,38,40,61,58,45
16,63,47,-16,-39,54,-25,37,40,60,57,46
16,63,47,-15,-39,54,-26,37,40,60,57,46
16,63,46,-15,-39,54,-26,36,40,59,56,46
16,62,47,-16,-39,54,-26,37,40,59,56,46
14,62,48,-17,-38,55,-26,37,41,59,56,46
13,63,50,-19,-38,56,-26,38,41,59,57,46
11,63,53,-21,-37,58,-26,38,42,59,57,46
9,63,55,-23,-37,59,-25,38,42,59,57,47
7,65,58,-25,-36,61,-25,39,42,59,58,47
5,66,61,-28,-36,64,-24,39,43,59,58,48
5,68,64,-29,-37,66,-24,39,43,59,59,49
5,71,65,-30,-38,69,-24,40,43,60,59,50
7,73,66,-29,-40,71,-23,40,43,60,60,52
9,76,66,-28,-43,72,-22,41,43,61,61,54
12,78,66,-27,-45,73,-22,42,43,62,62,55
14,80,66,-26,-47,74,-21,43,44,63,63,57
16,82,65,-24,-49,75,-21,45,45,65,64,58
18,83,65,-23,-51,75,-20,46,46,66,65,59
20,85,64,-22,-52,75,-20,46,47,68,67,60
21,86,64,-22,-54,76,-19,47,47,69,68,61
22,87,64,-22,-55,77,-18,46,48,70,69,62
23,88,65,-21,-56,77,-18,46,48,71,70,63
23,89,65,-21,-57,77,-18,46,48,71,70,64
24,90,65,-21,-58,78,-18,45,48,72,70,65
25,90,65,-20,-58,78,-19,45,48,72,70,66
26,90,64,-20,-58,78,-20,44,48,72,69,67
26,90,64,-19,-58,77,-20,43,47,72,68,67
27,89,63,-18,-58,77,-21,43,47,72,68,68
26,88,62,-18,-57,76,-21,43,47,71,68,68
25,87,62,-18,-56,75,-21,43,47,71,68,69
23,85,62,-19,-54,73,-22,44,48,72,69,69
21,83,62,-20,-52,72,-22,44,48,72,69,70
18,81,63,-22,-49,71,-23,44,48,73,70,70
16,79,63,-24,-47,71,-23,45,48,73,70,71
14,79,64,-25,-46,71,-24,45,48,74,70,71
15,80,64,-25,-47,72,-25,45,47,74,70,72
17,82,64,-24,-49,72,-26,45,47,74,70,72
20,84,63,-22,-52,73,-27,45,47,74,69,72
24,87,62,-20,-55,74,-28,45,46,73,69,72
27,89,62,-18,-58,75,-28,45,47,73,69,72
29,92,62,-17,-60,76,-28,45,47,73,69,72
31,94,62,-16,-62,78,-27,45,47,73,69,72
32,96,63,-16,-64,79,-26,46,48,73,70,73
33,97,63,-16,-64,80,-26,46,48,73,71,73
32,96,63,-16,-64,79,-25,46,48,74,72,73
31,95,62,-16,-63,78,-24,46,48,74,73,74
30,92,61,-16,-61,76,-24,46,48,74,73,73
28,89,60,-17,-59,74,-24,45,48,74,73,73
26,86,59,-17,-56,72,-24,45,47,73,72,73
23,83,58,-18,-53,70,-24,44,46,73,72,72
21,81,58,-19,-51,69,-24,43,46,73,71,72
19,79,59,-21,-49,69,-24,42,45,72,71,71
17,78,60,-22,-47,68,-23,41,44,72,70,71
16,77,60,-23,-46,68,-23,41,43,71,70,71
16,77,61,-24,-46,69,-22,40,43,71,69,71
16,78,62,-24,-46,69,-22,40,43,71,69,71
16,79,62,-24,-47,70,-21,39,43,71,69,71
17,80,63,-24,-48,71,-21,39,43,70,68,71
17,81,64,-24,-48,71,-20,38,43,70,68,70
17,82,64,-24,-49,72,-20,37,42,69,67,69
17,82,65,-25,-49,72,-20,37,42,68,66,68
16,82,65,-25,-49,72,-21,36,41,67,65,66
16,82,65,-25,-49,72,-21,35,41,66,64,65
15,83,66,-25,-49,73,-21,35,41,65,63,63
15,83,67,-26,-49,73,-21,34,41,65,62,62
14,84,69,-27,-49,74,-20,34,41,64,62,62
14,85,70,-27,-50,76,-19,35,41,65,62,61
15,87,72,-28,-51,77,-17,35,41,65,62,62
16,90,73,-28,-53,79,-15,36,41,66,63,62
19,93,74,-27,-56,82,-13,38,42,66,64,63
22,97,76,-26,-60,85,-10,40,43,67,65,65
24,102,77,-26,-63,88,-7,42,45,69,67,67
27,106,79,-26,-66,91,-3,45,48,71,69,70
30,110,80,-25,-69,94,0,47,51,73,71,72
32,113,81,-25,-72,96,3,49,53,75,73,75
34,116,83,-25,-75,99,6,51,55,76,74,77
35,119,84,-25,-77,101,9,54,57,78,76,79
35,122,87,-26,-78,104,12,56,59,79,78,81
35,124,90,-28,-80,107,14,59,61,80,79,82
35,127,92,-29,-81,110,17,61,63,82,80,83
35,129,95,-30,-83,112,20,63,64,83,81,84
35,131,97,-31,-84,114,22,65,65,83,82,85
36,134,99,-32,-85,116,25,66,66,84,82,86
36,136,101,-32,-86,118,27,67,67,84,83,86
36,138,103,-33,-87,120,29,68,68,85,83,87
36,141,105,-34,-88,122,30,69,68,85,84,87
37,144,107,-35,-90,125,31,70,69,86,84,88
38,147,110,-36,-92,128,31,70,69,86,85,88
39,151,112,-36,-94,131,31,70,69,87,86,89
41,154,114,-37,-97,134,30,70,69,87,87,90
43,158,116,-37,-100,137,29,70,69,88,88,92
45,162,118,-37,-103,140,28,71,70,89,89,93
48,167,120,-37,-107,144,26,71,71,91,90,95
51,172,122,-36,-111,147,25,73,72,93,92,97
54,176,123,-35,-115,150,23,74,73,94,94,99
57,179,124,-34,-118,152,21,75,74,96,95,101
59,182,124,-33,-120,153,19,76,75,97,96,102
60,184,124,-32,-122,154,18,76,75,98,97,103
61,185,124,-32,-123,155,16,76,76,98,97,104
62,186,124,-32,-124,155,15,75,75,98,97,105
62,187,124,-31,-124,155,14,74,75,98,97,105
63,187,123,-31,-124,155,12,73,73,97,96,105
64,186,122,-29,-124,153,10,70,71,97,95,104
65,184,118,-27,-124,151,8,68,69,95,93,102
67,181,114,-24,-123,147,5,65,66,93,90,100
69,177,108,-20,-122,142,2,62,62,91,87,97
69,171,101,-16,-120,135,-1,58,59,87,84,93
69,163,94,-13,-116,128,-4,55,56,84,80,89
67,154,87,-10,-110,120,-6,52,53,81,76,85
64,144,79,-8,-104,111,-8,49,51,77,73,81
60,132,72,-6,-96,101,-9,46,48,74,69,76
56,120,64,-4,-88,91,-9,44,46,70,66,72
52,109,56,-2,-80,82,-10,41,44,66,62,68
48,98,49,-1,-73,73,-10,38,41,62,59,63
43,87,43,-1,-65,65,-10,35,38,58,55,59
38,77,38,-1,-58,58,-10,31,35,53,51,54
33,68,34,-1,-50,51,-10,28,32,49,46,50
28,59,31,-2,-43,45,-10,24,29,44,42,45
24,52,28,-3,-37,39,-11,20,25,40,37,41
20,45,25,-3,-32,35,-11,17,23,35,33,36
17,40,23,-3,-28,31,-11,14,20,31,29,32
15,36,21,-3,-25,28,-10,12,17,28,25,28
14,33,19,-3,-23,25,-9,10,15,25,22,25
13,30,18,-3,-21,23,-7,9,13,23,19,22
13,29,16,-2,-20,22,-5,7,12,21,17,20
13,28,15,-2,-20,20,-3,6,11,20,15,18
13,27,13,-1,-19,19,-2,4,9,18,13,16
14,26,11,0,-19,17,-2,2,8,17,12,14
14,24,9,1,-18,15,-2,0,6,15,10,12
13,21,7,2,-16,13,-2,-2,3,12,8,10
12,18,6,2,-14,11,-3,-4,1,10,6,8
10,15,5,1,-12,9,-4,-6,-1,8,4,6
7,13,4,0,-10,7,-4,-7,-2,6,2,4
5,11,4,-1,-8,6,-4,-8,-3,4,1,3
4,9,5,-2,-7,6,-3,-8,-3,3,0,2
3,9,5,-2,-6,6,-2,-8,-3,2,-1,1
3,9,5,-2,-6,6,-1,-7,-3,2,-1,1
3,8,5,-2,-5,6,0,-6,-2,2,-1,1
3,7,4,-1,-5,5,0,-5,-2,2,-1,1
2,6,3,-1,-4,4,0,-4,-1,1,-1,1
3,7,4,0,-3,4,2,-2,0,3,1,2
2,4,2,0,-2,2,1,0,1,2,1,1
0,0,0,0,0,0,0,0,0,0,0,0
0,-2,-1,1,2,-2,2,1,2,0,0,-1
-2,-5,-2,1,5,-4,4,4,4,-1,-1,-3
-5,-9,-4,1,9,-7,7,8,8,-2,-2,-5
-6,-11,-4,0,10,-8,10,16,15,-3,-1,-5
-7,-15,-6,1,13,-10,15,27,23,-4,0,-6
-4,-3,1,0,5,-2,19,42,37,1,5,0
5,12,8,-1,-6,10,25,61,53,10,12,11
13,37,24,-4,-24,31,28,87,78,31,36,34
23,64,44,-9,-41,53,34,117,106,56,63,68
49,100,52,0,-74,74,24,154,141,105,117,119
78,141,62,10,-106,100,11,193,176,162,178,182
120,176,55,33,-146,114,-5,219,202,224,240,260
167,213,48,61,-188,130,-24,243,226,288,308,349
208,257,48,82,-232,151,-42,267,249,371,390,454
257,305,48,106,-279,178,-62,290,271,460,481,570
326,377,53,137,-351,215,-81,313,291,549,574,696
400,457,58,172,-427,258,-104,329,310,646,670,829
450,561,113,170,-504,338,-113,350,321,749,776,966
496,675,181,158,-584,426,-118,369,332,857,881,1113
508,706,200,154,-604,453,-129,356,326,922,933,1179
509,732,222,144,-619,477,-137,344,318,982,979,1234
487,698,213,137,-590,454,-139,286,267,941,925,1162
451,650,199,127,-547,424,-138,222,208,877,851,1058
385,616,233,77,-500,424,-124,140,133,745,709,914
306,565,258,23,-432,410,-105,44,43,580,537,733
234,478,246,-6,-355,362,-100,-53,-48,428,381,567
158,370,213,-27,-262,292,-95,-163,-155,246,199,374
95,276,181,-42,-185,229,-86,-235,-224,99,59,219
39,185,149,-55,-109,166,-77,-302,-292,-55,-87,65
-1,137,138,-69,-66,138,-63,-330,-321,-148,-172,-34
-33,110,143,-85,-36,124,-49,-341,-337,-212,-229,-98
-53,91,146,-98,-17,120,-45,-338,-338,-247,-257,-133
-66,91,158,-112,-10,123,-42,-314,-318,-246,-250,-132
-66,99,164,-114,-14,131,-39,-277,-284,-219,-217,-106
-60,105,167,-112,-20,135,-39,-229,-237,-176,-167,-70
-50,110,160,-103,-28,135,-30,-176,-185,-122,-115,-37
-38,108,145,-90,-32,125,-23,-127,-135,-75,-72,-17
-29,89,122,-76,-27,105,-21,-102,-105,-51,-53,-20
-24,67,93,-58,-21,79,-19,-87,-84,-45,-49,-34
-23,50,73,-46,-12,61,-17,-80,-76,-56,-63,-53
-17,37,59,-38,-9,47,-14,-75,-70,-67,-72,-66
-17,33,48,-31,-5,39,-11,-71,-65,-71,-74,-66
-13,29,42,-27,-7,34,-10,-60,-56,-63,-65,-54
-9,33,45,-27,-10,38,-4,-45,-41,-50,-48,-36
-8,38,46,-27,-13,42,5,-27,-24,-26,-26,-16
0,41,41,-21,-18,40,12,-8,-7,-2,-2,0
9,41,32,-10,-23,36,19,8,8,19,15,9
1,29,30,-16,-13,31,22,11,10,22,17,4
-11,18,28,-19,-1,24,23,8,10,14,8,-8
-13,7,22,-17,5,14,20,5,7,5,-1,-21
-15,0,16,-16,9,8,19,4,3,-4,-12,-28
-4,12,14,-7,-3,12,23,7,7,-7,-10,-24
-1,16,17,-9,-6,16,23,13,12,4,2,-11
-2,15,17,-9,-6,15,22,16,15,9,7,-5
-1,16,17,-9,-6,16,22,20,19,15,14,2
-1,15,18,-9,-6,15,21,24,22,21,20,7
-1,15,16,-9,-6,15,22,26,25,24,23,10
0,15,15,-7,-7,15,23,28,26,25,25,10
2,15,14,-6,-8,15,24,29,27,24,24,10
3,16,14,-5,-9,15,25,29,28,23,23,9
5,19,15,-5,-11,17,27,30,28,22,22,9
6,23,17,-5,-14,20,29,31,30,23,23,11
9,28,19,-5,-18,23,30,32,31,25,25,14
13,32,19,-3,-23,25,32,33,32,28,28,16
17,36,19,-1,-27,27,33,34,33,31,32,19
22,39,17,3,-31,27,33,35,34,33,35,21
26,40,15,5,-33,27,33,36,35,35,37,22
27,40,13,7,-34,26,33,37,36,35,37,24
28,39,11,8,-33,24,33,37,36,35,36,24
28,35,7,9,-31,21,32,36,35,34,34,22
27,31,5,10,-29,17,31,36,34,32,33,21
25,28,3,10,-26,14,31,36,34,32,32,21
23,25,2,10,-24,13,32,37,35,32,33,22
21,25,4,8,-23,14,34,40,37,34,35,25
19,26,6,6,-22,16,36,42,40,36,36,28
19,27,8,5,-23,17,38,46,43,39,38,30
20,30,9,5,-25,19,41,49,46,43,40,32
23,33,10,6,-28,21,43,52,50,46,43,34
26,36,10,8,-31,23,46,55,52,49,46,36
29,40,11,9,-35,25,48,57,55,52,49,38
32,42,11,10,-37,26,50,58,57,53,51,39
33,43,9,12,-38,26,50,59,58,55,51,40
34,43,8,13,-38,25,50,59,58,55,52,41
34,41,6,14,-37,23,50,59,58,55,52,41
33,39,5,14,-36,21,49,59,58,55,52,42
33,38,5,13,-35,21,49,59,58,55,53,43
32,38,6,12,-34,21,48,60,59,55,54,44
31,38,7,11,-34,22,47,61,60,56,54,45
30,38,8,10,-34,23,47,63,61,57,55,47
29,38,9,9,-33,23,46,64,62,59,56,48
28,37,9,9,-33,23,45,66,63,60,57,49
28,37,9,9,-33,23,44,67,63,60,57,49
29,38,9,10,-33,23,43,68,64,60,58,50
30,39,10,10,-34,24,42,70,65,61,59,51
30,42,11,9,-36,26,41,72,67,62,60,53
30,46,15,8,-37,29,41,75,70,64,63,56
30,49,18,6,-39,33,41,78,73,67,65,58
31,52,20,6,-41,36,41,81,75,70,68,60
33,56,22,6,-44,39,41,84,78,73,71,62
37,60,23,8,-48,41,41,87,81,76,74,64
40,64,24,8,-52,44,42,90,84,78,78,66
40,67,26,8,-54,47,43,92,88,80,80,69
42,69,27,8,-55,48,43,94,90,82,82,71
42,70,27,8,-56,48,43,94,92,83,83,72
43,71,27,8,-57,49,43,95,93,84,84,73
45,73,28,9,-59,50,44,96,94,85,85,74
48,76,28,10,-62,52,44,97,95,86,86,75
51,80,28,12,-65,54,44,99,97,87,88,77
56,84,28,14,-70,56,44,101,99,89,90,79
62,89,27,17,-75,58,44,104,102,91,93,82
66,94,28,19,-79,61,44,107,105,93,95,84
68,97,30,19,-82,63,45,109,108,95,97,86
71,101,31,20,-86,66,46,111,111,97,99,87
75,105,30,23,-90,67,45,114,113,97,100,88
79,109,30,25,-94,69,45,115,115,98,101,89
83,112,28,28,-98,70,44,117,116,99,102,91
84,113,29,28,-99,71,43,118,118,100,103,93
83,114,31,26,-99,72,43,120,119,102,103,96
83,116,32,25,-99,75,42,122,121,104,104,99
84,119,34,25,-102,77,42,125,123,106,106,102
88,124,35,26,-106,80,42,128,126,108,109,105
94,130,35,29,-111,83,41,131,129,111,112,109
99,136,37,31,-117,86,41,134,132,114,115,112
104,142,38,32,-123,90,41,137,135,117,118,116
107,148,40,33,-127,94,40,140,137,120,120,119
108,151,43,32,-129,97,39,142,140,123,123,122
108,153,45,31,-131,99,38,144,142,125,125,125
108,154,45,31,-131,100,35,145,143,126,125,126
111,156,45,33,-134,100,34,146,144,127,127,128
116,159,43,36,-138,101,33,147,144,128,127,130
119,161,41,39,-141,101,32,148,144,128,128,131
121,161,40,40,-141,100,31,147,144,128,129,132
122,160,38,42,-142,99,30,147,144,128,130,133
125,161,35,45,-143,98,30,146,143,126,129,133
129,163,33,48,-146,98,30,146,142,125,129,134
134,167,32,51,-150,100,33,146,143,125,130,136
138,171,31,53,-154,101,35,147,144,125,130,138
140,173,31,54,-156,102,37,147,146,126,132,141
141,174,31,55,-157,102,39,148,147,127,133,142
142,174,30,56,-157,102,40,148,148,127,134,143
143,174,30,56,-158,101,41,148,148,127,134,144
143,174,30,56,-158,101,41,148,148,127,134,144
143,174,30,56,-158,101,42,148,148,127,134,144
143,174,31,55,-158,101,42,148,147,126,133,143
142,174,31,55,-158,102,43,147,146,125,133,142
141,174,32,54,-157,103,43,147,144,125,132,141
140,173,33,53,-157,103,44,146,143,125,133,141
139,172,33,52,-156,103,45,146,142,126,134,141
136,169,34,50,-153,102,46,145,141,127,134,140
130,164,35,47,-147,100,46,145,140,127,134,139
122,158,36,43,-140,97,46,143,138,126,131,138
113,151,37,38,-132,94,46,141,135,124,128,135
105,144,38,34,-124,91,46,139,132,122,125,133
99,138,39,30,-119,88,47,136,129,120,121,131
93,133,39,27,-113,86,47,133,126,117,117,128
87,126,39,24,-106,82,46,128,122,114,113,124
83,121,38,22,-101,79,46,123,119,110,109,121
80,116,37,21,-97,76,46,119,115,107,106,117
77,112,36,20,-94,74,47,115,111,104,103,113
75,110,36,19,-92,73,49,112,109,102,100,110
72,107,35,18,-89,71,50,109,106,99,97,106
68,101,34,16,-84,68,50,105,103,96,94,102
65,96,31,16,-80,64,50,102,99,92,91,97
63,90,27,17,-76,59,51,97,95,88,88,92
60,85,24,17,-72,54,52,93,90,83,84,87
58,80,21,17,-68,50,53,89,86,78,80,82
54,75,20,15,-64,48,55,85,82,74,76,78
48,71,22,12,-59,46,58,82,78,71,72,74
43,68,24,8,-55,46,60,79,75,67,68,71
38,66,27,5,-52,46,62,76,72,65,65,68
34,63,29,3,-49,45,64,72,69,62,62,64
32,61,28,2,-46,44,64,68,65,59,57,61
30,58,28,1,-44,42,65,63,62,55,53,56
28,56,27,0,-41,40,65,58,58,51,48,52
26,54,28,-1,-39,40,65,55,55,47,43,49
22,52,30,-4,-36,40,66,53,52,44,40,47
21,51,30,-5,-35,40,65,51,50,42,37,46
21,49,28,-4,-34,38,65,48,48,39,34,44
21,47,27,-3,-33,36,64,46,45,36,32,42
19,44,25,-3,-31,34,63,43,43,33,29,39
18,41,24,-3,-29,32,63,40,41,31,27,37
16,40,24,-4,-28,32,63,39,40,30,26,36
15,39,24,-5,-27,31,64,37,38,28,25,34
16,39,22,-3,-28,30,63,37,37,27,24,33
16,37,20,-2,-27,28,62,36,36,26,23,32
14,34,19,-3,-24,26,61,35,35,24,21,31
11,31,19,-4,-21,25,59,34,34,23,20,30
7,29,21,-7,-18,24,58,33,33,22,19,29
4,28,22,-9,-16,25,58,33,32,21,18,30
2,28,24,-11,-15,26,60,35,32,21,18,31
1,29,25,-12,-15,27,61,36,31,22,17,32
2,30,26,-12,-16,28,61,37,30,22,17,32
3,31,26,-12,-17,29,61,37,29,22,16,31
4,32,28,-12,-18,30,61,35,27,21,15,28
5,34,29,-12,-19,32,61,34,27,19,14,26
6,36,29,-12,-20,33,61,33,27,18,12,25
6,38,31,-12,-21,34,62,33,27,17,12,24
5,39,33,-13,-21,35,62,33,28,18,12,25
5,40,35,-15,-22,37,63,33,29,19,13,25
5,43,37,-16,-23,40,63,33,31,19,14,26
6,45,39,-16,-25,42,64,33,33,20,15,27
7,47,40,-16,-27,43,65,34,35,22,17,28
8,48,40,-16,-27,44,66,36,37,22,18,30
7,47,40,-16,-27,43,66,37,38,22,18,31
7,47,39,-16,-27,42,66,39,39,23,18,32
7,46,39,-16,-27,42,66,39,39,23,17,32
7,45,38,-15,-27,41,65,39,39,22,17,33
6,44,37,-15,-25,40,64,39,38,22,16,33
6,41,35,-15,-24,38,62,37,37,20,15,32
6,40,33,-13,-23,36,61,34,36,18,13,31
7,39,31,-12,-23,35,60,32,35,16,12,29
8,40,31,-12,-24,35,60,31,35,14,11,28
9,42,32,-12,-25,37,60,31,35,13,11,28
10,45,34,-12,-27,39,60,32,37,13,11,28
10,47,36,-14,-28,41,62,34,39,14,12,29
10,50,39,-15,-30,44,63,36,41,16,13,31
10,52,41,-16,-31,46,65,39,43,18,15,32
9,54,44,-18,-31,48,66,41,44,19,16,34
7,55,46,-20,-32,50,67,42,45,20,17,36
6,56,48,-21,-31,51,67,43,46,20,18,37
5,57,50,-23,-31,53,66,44,46,20,19,39
5,58,51,-23,-32,54,66,44,47,21,20,40
5,59,52,-24,-32,56,65,45,48,22,21,41
5,60,53,-24,-33,57,64,47,49,23,21,43
6,61,54,-24,-34,58,64,48,50,23,22,44
6,63,55,-24,-35,59,63,49,51,25,23,46
8,65,55,-24,-36,60,63,51,52,26,24,47
10,67,56,-23,-38,61,63,53,53,27,26,49
13,69,55,-21,-41,62,62,54,54,29,28,50
15,71,55,-20,-43,62,61,55,55,31,29,52
17,72,55,-19,-44,62,60,56,55,32,30,53
18,72,54,-18,-45,63,59,57,56,33,31,55
18,73,54,-18,-45,63,57,58,57,35,32,56
18,73,54,-19,-45,63,56,58,57,35,33,57
17,72,54,-19,-45,63,54,58,57,36,34,58
16,72,54,-19,-44,63,52,58,56,36,34,59
16,71,54,-20,-44,63,51,58,56,36,34,60
15,71,55,-20,-44,63,50,58,56,36,34,60
15,72,55,-20,-44,63,49,58,56,36,34,61
16,72,55,-21,-44,64,49,58,56,36,35,61
16,73,56,-21,-45,65,49,59,56,36,35,62
16,73,56,-21,-45,65,48,59,57,37,35,62
16,73,56,-21,-45,66,48,59,57,37,36,62
15,73,57,-22,-44,66,47,59,57,37,36,62
15,73,57,-22,-44,66,46,59,57,38,36,63
14,74,58,-23,-44,67,45,59,57,38,37,63
14,74,58,-23,-44,67,44,60,58,38,37,64
14,74,59,-23,-44,67,43,60,58,39,38,64
14,74,59,-23,-44,67,43,60,58,39,38,64
15,75,59,-23,-44,67,43,59,57,39,39,64
16,76,59,-22,-45,67,44,58,57,39,39,64
18,77,58,-21,-47,68,45,58,56,39,39,64
20,78,57,-19,-49,68,46,57,55,39,39,64
22,79,57,-18,-50,68,47,56,54,39,39,64
23,80,56,-17,-51,68,48,55,53,39,39,64
23,80,56,-17,-52,68,49,54,52,38,39,64
23,80,56,-17,-52,68,50,54,52,38,38,63
23,81,56,-17,-52,68,51,54,51,37,38,63
23,81,56,-17,-52,68,51,54,51,37,38,63
24,81,56,-17,-52,68,51,54,51,37,37,63
24,81,56,-17,-52,68,51,54,51,37,37,63
24,81,56,-17,-52,68,51,54,51,36,36,63
24,81,57,-17,-51,68,51,54,51,36,36,63
24,81,57,-17,-51,68,51,53,51,36,35,62
24,81,56,-17,-52,68,50,53,51,35,35,61
26,82,55,-16,-53,68,50,52,50,35,34,60
27,82,54,-14,-54,68,49,50,49,34,33,59
29,82,52,-13,-55,67,49,49,48,34,32,58
30,81,50,-11,-55,66,48,48,47,33,31,57
31,80,49,-10,-55,65,48,47,47,33,31,56
31,79,47,-9,-55,63,47,46,46,33,31,55
30,77,46,-9,-53,61,47,45,46,33,31,55
29,75,45,-9,-51,60,46,45,46,33,31,55
27,73,45,-10,-49,58,46,45,46,33,31,55
25,71,45,-10,-47,57,46,45,47,33,32,55
23,70,45,-11,-45,57,46,45,47,33,32,55
22,69,45,-12,-44,56,46,45,47,33,32,55
21,68,45,-12,-44,55,46,45,47,33,32,54
20,67,44,-12,-43,55,45,45,46,33,31,53
19,66,44,-13,-42,54,44,44,45,32,30,52
18,64,44,-13,-41,54,43,44,44,31,29,51
16,62,45,-14,-39,53,42,43,43,30,27,49
14,60,45,-16,-37,53,41,42,42,29,26,48
12,58,46,-17,-35,52,41,41,41,28,25,46
10,57,46,-18,-33,52,40,40,40,27,24,45
9,55,46,-18,-32,51,39,39,39,26,23,44
8,54,46,-19,-31,50,39,38,39,25,22,43
7,53,46,-20,-30,49,38,37,38,24,21,42
5,52,46,-21,-28,49,37,36,38,23,21,41
4,50,46,-22,-27,48,37,36,38,23,21,41
2,49,47,-22,-26,48,36,36,38,22,21,40
2,48,47,-23,-25,47,36,36,38,22,21,40
2,49,47,-22,-26,47,37,37,39,22,21,39
4,51,47,-21,-28,48,38,38,40,23,22,39
8,55,47,-19,-32,50,39,39,41,24,23,40
12,60,47,-17,-36,53,41,41,43,25,25,41
16,66,48,-15,-41,57,44,43,45,27,27,42
21,72,50,-14,-46,61,46,46,48,30,29,44
24,78,52,-13,-51,65,48,49,50,33,31,46
27,84,55,-13,-55,69,51,52,54,36,34,49
30,90,58,-13,-59,74,53,55,57,39,37,52
31,96,62,-15,-63,79,55,58,60,42,40,55
32,101,66,-16,-66,84,58,61,63,45,44,58
33,105,70,-18,-69,88,60,64,66,47,47,61
34,109,73,-20,-71,92,62,66,68,50,49,63
34,112,76,-21,-73,95,64,68,69,52,52,65
35,115,78,-21,-75,97,65,69,70,53,53,66
36,117,79,-22,-76,98,66,70,70,53,54,67
36,118,80,-22,-76,99,66,70,69,53,54,67
36,119,81,-23,-77,100,66,70,68,52,54,67
35,119,82,-23,-77,101,66,69,67,51,53,67
34,120,83,-24,-77,102,65,69,67,51,53,67
34,121,85,-26,-77,103,64,69,67,51,54,67
33,122,87,-27,-78,105,63,69,67,52,54,69
34,125,89,-28,-79,107,61,70,68,53,56,71
36,128,91,-28,-82,109,59,72,70,56,58,73
38,132,93,-28,-85,112,56,74,72,59,61,77
41,136,94,-27,-89,114,54,77,74,63,64,81
46,141,94,-25,-93,117,51,80,77,67,67,85
50,145,94,-23,-98,119,49,83,79,72,71,89
56,150,93,-19,-103,121,47,85,81,76,75,93
62,155,92,-15,-109,123,45,87,83,80,78,97
68,160,90,-11,-114,124,43,89,84,83,81,100
75,164,88,-7,-120,126,42,90,84,86,83,103
80,169,87,-3,-125,128,40,90,83,87,84,105
85,172,85,0,-129,129,38,90,82,88,85,106
89,175,84,3,-132,129,37,90,81,89,86,107
91,176,82,5,-133,129,34,89,80,89,86,107
93,175,80,6,-134,128,32,87,79,88,85,106
93,173,78,8,-133,126,29,85,77,87,84,105
93,170,74,9,-131,122,26,81,74,85,82,102
92,165,70,11,-129,118,23,78,71,82,79,99
90,157,65,13,-124,111,19,73,67,78,75,95
87,148,59,14,-118,104,17,68,63,74,71,90
83,138,53,14,-111,96,14,63,59,69,66,85
77,127,48,14,-102,88,13,58,55,64,61,79
71,116,43,13,-93,80,12,53,52,59,56,73
64,105,39,11,-84,73,11,49,48,54,51,67
57,95,36,10,-76,66,11,45,45,49,46,61
51,86,33,8,-68,60,11,41,42,45,42,56
45,77,30,6,-60,54,12,38,38,41,38,51
39,68,27,5,-54,48,12,34,35,37,33,46
34,61,25,4,-47,44,12,31,32,33,29,41
29,54,23,2,-42,39,12,27,29,29,25,37
25,48,22,1,-37,35,13,24,26,25,21,32
20,42,21,-1,-32,32,13,20,23,22,18,28
15,37,20,-2,-27,29,13,17,20,19,15,25
11,32,19,-4,-22,26,13,14,18,16,13,22
6,27,19,-6,-17,23,13,12,15,14,11,19
4,23,18,-7,-14,21,12,10,13,12,9,17
2,20,17,-7,-12,19,12,9,12,11,8,15
2,18,15,-7,-10,17,12,8,11,10,8,14
2,16,13,-6,-9,15,11,8,10,9,8,13
1,14,12,-6,-8,13,11,7,9,8,8,12
0,13,11,-6,-7,12,10,7,9,8,8,12
-1,11,11,-7,-5,11,9,6,8,8,8,11
-2,10,11,-7,-4,10,8,5,7,7,8,11
-3,8,10,-8,-3,10,7,4,6,7,8,11
-4,7,9,-8,-2,8,6,3,5,7,8,10
-3,6,7,-6,-2,7,5,2,4,6,7,9
-2,6,5,-5,-2,6,4,1,2,5,6,8
0,6,4,-3,-3,5,3,0,1,4,5,7
2,6,2,-1,-4,5,3,-1,0,3,5,6
4,7,1,0,-5,4,2,-1,0,3,4,6
5,7,1,1,-6,4,2,-2,0,3,4,5
5,7,0,1,-6,4,2,-2,-1,3,3,4
5,6,0,2,-5,3,1,-2,-1,3,3,4
4,5,0,1,-4,2,1,-2,-1,2,2,3
5,5,0,3,-3,2,1,-2,-1,3,2,3
4,3,-1,3,-2,1,-1,-2,-2,2,1,2
0,0,0,0,0,0,0,0,0,0,0,0
-5,-2,2,-3,5,0,1,6,3,-1,-1,-1
-13,-6,6,-9,10,1,5,13,9,-1,-1,-2
-21,-8,12,-16,15,3,8,22,17,0,0,0
-35,-17,17,-25,26,2,15,31,26,0,0,0
-32,-7,25,-28,22,9,12,46,39,7,8,9
-31,3,32,-31,16,16,10,60,54,17,18,24
-3,36,38,-21,-17,38,9,92,83,43,48,53
28,77,47,-9,-51,62,9,128,114,73,86,94
68,113,44,11,-88,78,4,160,150,127,139,148
113,154,42,35,-132,98,-3,195,190,192,203,212
158,181,21,68,-168,102,-24,214,202,243,256,286
213,210,-4,108,-209,103,-49,232,215,299,315,368
276,260,-15,145,-268,123,-67,257,235,367,387,460
342,316,-28,185,-326,145,-86,281,252,440,462,562
425,401,-22,223,-411,190,-104,302,267,524,548,673
508,493,-18,264,-500,237,-122,317,277,610,635,789
556,575,17,269,-562,296,-134,324,281,690,713,907
596,661,63,266,-626,361,-143,326,282,767,790,1018
601,666,64,269,-633,365,-143,305,264,795,807,1038
597,666,68,265,-631,367,-140,280,245,815,816,1043
563,647,85,239,-603,367,-130,228,200,751,742,960
512,616,102,205,-562,359,-115,167,149,670,648,847
431,570,136,149,-500,353,-102,88,79,554,530,725
334,499,162,86,-415,329,-90,-1,-2,415,384,570
254,407,152,51,-329,281,-80,-88,-86,273,243,421
167,300,133,19,-231,216,-70,-185,-179,110,79,248
94,215,119,-12,-154,167,-61,-236,-229,-3,-29,124
28,140,111,-40,-81,124,-51,-281,-275,-112,-128,13
-17,100,119,-69,-39,110,-40,-299,-295,-178,-191,-63
-55,84,137,-96,-15,108,-30,-299,-303,-218,-225,-103
-68,80,146,-106,-5,113,-27,-285,-293,-229,-230,-112
-66,89,156,-112,-10,123,-24,-256,-265,-210,-206,-94
-65,95,157,-110,-14,125,-23,-219,-231,-178,-172,-66
-54,99,151,-101,-21,126,-20,-177,-185,-135,-131,-40
-37,100,138,-89,-29,119,-12,-136,-145,-96,-92,-25
-25,95,119,-71,-34,108,-5,-98,-106,-68,-66,-23
-26,76,102,-63,-25,88,1,-81,-87,-59,-60,-32
-32,53,85,-57,-9,69,6,-69,-74,-62,-63,-46
-33,40,71,-51,-2,55,6,-67,-68,-70,-75,-59
-29,30,61,-44,0,46,7,-63,-67,-78,-80,-62
-31,29,58,-45,3,42,8,-58,-59,-77,-78,-55
-29,30,58,-43,0,45,9,-46,-49,-69,-65,-42
-25,31,57,-41,0,43,12,-33,-36,-50,-45,-22
-26,29,53,-39,1,42,16,-19,-22,-31,-27,-7
-22,31,51,-35,-5,39,23,-1,-6,-11,-8,8
-17,27,45,-30,-5,36,29,14,8,5,4,13
-17,18,34,-25,0,26,26,13,10,2,1,4
-18,8,25,-21,6,16,25,7,7,-6,-8,-9
-9,10,18,-14,1,15,27,8,5,-13,-15,-15
1,18,14,-6,-8,17,31,9,7,-18,-18,-16
0,19,18,-9,-8,18,32,12,8,-11,-10,-6
3,21,17,-7,-11,19,34,15,11,-8,-6,-2
4,22,16,-6,-12,19,35,19,14,-3,-2,3
3,21,17,-6,-12,19,36,22,18,2,3,7
2,20,16,-7,-11,18,37,25,21,6,7,10
0,18,16,-7,-9,16,37,27,23,8,8,11
-1,15,14,-7,-7,14,39,27,24,8,8,11
-2,12,14,-8,-5,13,40,28,24,7,7,11
-3,12,14,-8,-5,13,41,30,25,7,7,12
-1,14,14,-7,-6,14,43,31,26,8,9,15
3,18,15,-6,-10,16,45,34,28,11,12,18
6,22,14,-3,-14,18,46,35,30,14,15,21
10,24,12,-1,-17,18,46,36,31,16,17,22
11,25,13,-1,-18,19,45,37,33,18,18,22
9,26,15,-3,-17,20,45,38,34,19,18,22
6,26,17,-6,-16,21,44,37,35,18,17,20
3,24,19,-8,-13,21,42,36,34,16,14,17
0,22,20,-10,-11,21,40,35,33,14,12,15
-1,22,22,-11,-10,21,38,34,33,11,10,12
0,24,23,-12,-12,23,37,35,33,10,9,12
5,29,24,-10,-17,26,37,37,35,11,11,13
10,35,24,-8,-22,29,37,39,38,12,13,15
16,39,22,-4,-28,30,37,40,39,15,15,17
20,42,21,-1,-31,32,37,41,40,17,18,19
20,43,22,-1,-32,32,37,42,40,18,19,21
22,45,22,-1,-33,33,37,43,41,20,21,23
24,47,22,1,-35,34,38,44,43,22,23,25
26,48,21,2,-37,34,39,45,44,23,25,27
28,49,19,4,-38,34,39,46,45,25,26,29
27,47,18,4,-36,32,39,45,45,26,26,30
22,43,18,2,-32,30,37,44,45,27,26,30
18,39,19,-1,-28,29,35,44,44,27,25,30
14,36,20,-4,-25,28,34,44,45,27,25,30
14,38,22,-5,-26,30,33,45,46,27,26,30
19,45,24,-4,-32,35,34,49,49,29,27,32
26,53,26,-2,-39,40,35,52,52,31,30,35
33,63,27,2,-48,45,37,55,55,34,33,37
38,69,29,3,-54,49,38,57,58,36,35,39
39,73,32,3,-56,52,39,58,60,38,38,41
39,75,33,2,-57,53,40,60,62,40,39,42
40,75,34,2,-57,54,40,61,62,41,40,44
41,76,33,4,-59,54,39,62,63,41,41,45
46,78,31,7,-62,54,37,63,63,41,42,46
50,80,29,10,-65,55,35,65,64,42,43,47
52,82,28,12,-67,55,34,66,65,43,45,49
53,81,26,13,-67,54,33,67,66,44,46,50
51,78,25,12,-65,52,32,67,67,45,46,50
48,76,25,11,-62,51,31,68,68,45,46,50
45,74,26,9,-60,51,32,68,69,45,45,50
43,74,28,7,-59,51,33,68,69,45,45,49
43,77,31,6,-60,54,35,70,71,45,45,49
44,80,34,4,-62,57,37,73,73,45,45,49
45,84,37,3,-65,61,38,76,76,47,46,50
47,89,40,3,-68,65,39,79,79,50,48,51
50,94,43,3,-71,69,39,83,82,52,51,53
53,100,46,3,-76,73,39,86,85,56,53,55
56,106,47,4,-81,77,38,90,88,58,56,57
59,110,49,4,-85,80,37,93,90,60,58,58
61,114,51,4,-87,83,36,96,94,62,60,60
62,117,52,4,-89,84,35,98,96,63,62,62
64,118,53,5,-91,86,35,100,98,64,64,64
66,120,53,6,-93,87,34,102,100,65,66,67
69,123,53,8,-96,88,33,104,101,66,67,69
72,126,53,9,-99,90,32,107,103,67,69,73
77,131,54,11,-104,93,32,110,105,69,71,77
82,138,55,14,-109,96,32,114,108,72,73,81
88,144,55,16,-116,100,32,119,112,75,77,86
93,149,55,19,-121,102,31,123,115,79,81,90
96,151,53,21,-124,102,28,126,118,82,84,93
99,152,51,23,-125,102,25,129,121,84,86,95
100,151,50,25,-125,101,23,131,123,86,88,97
101,151,48,26,-126,100,20,134,126,87,90,99
105,153,46,29,-129,100,19,136,128,88,92,101
107,153,44,31,-131,99,18,138,130,90,95,104
109,153,42,33,-131,98,16,139,132,92,97,106
110,152,41,34,-132,97,14,140,134,93,99,108
110,152,41,34,-132,97,13,142,135,95,101,111
111,153,41,35,-132,97,13,144,137,97,103,114
113,154,40,36,-134,97,12,145,139,99,104,115
115,156,40,38,-136,98,12,146,140,101,105,116
119,159,39,40,-139,99,12,147,141,101,105,115
122,162,39,41,-142,100,13,146,141,100,104,113
124,165,40,42,-145,102,14,145,140,99,103,112
127,169,40,43,-148,104,16,145,140,97,102,110
130,173,41,45,-152,106,18,144,140,97,101,109
135,177,40,48,-156,108,19,144,139,97,102,108
141,181,38,52,-161,109,20,144,139,96,102,108
147,185,37,55,-166,110,22,145,138,96,103,108
152,188,35,58,-170,112,24,145,137,94,103,107
155,191,34,60,-173,113,26,145,137,93,103,107
157,192,34,61,-175,113,28,145,137,93,103,107
156,191,33,61,-174,112,28,145,136,93,103,107
153,188,33,60,-171,110,28,145,136,93,102,107
149,184,33,57,-167,108,27,145,136,92,100,107
145,181,34,55,-163,107,26,145,135,91,99,107
140,177,35,51,-158,106,25,145,135,91,98,108
135,172,36,48,-154,104,25,145,136,93,98,109
131,168,36,47,-150,102,24,143,135,93,98,109
129,164,33,47,-146,98,23,141,135,93,97,108
127,160,31,47,-144,95,23,139,133,92,97,107
125,157,31,46,-141,93,23,138,132,90,96,106
120,154,32,43,-137,93,24,137,131,90,95,105
114,152,37,38,-132,94,27,137,131,90,95,105
106,148,40,33,-127,94,29,137,130,90,94,104
99,143,42,28,-121,93,31,134,129,89,92,101
94,138,43,25,-116,91,33,131,126,88,90,98
91,134,41,25,-113,88,34,127,122,86,88,95
89,130,40,24,-110,85,36,123,120,84,86,92
87,128,39,23,-108,84,39,120,117,82,84,89
85,125,38,23,-105,81,41,117,114,80,81,85
80,119,38,20,-99,78,41,112,110,77,76,80
75,113,37,19,-94,74,41,107,105,73,71,74
70,106,35,17,-88,71,41,102,100,68,65,69
64,100,34,15,-82,67,41,98,95,63,60,64
58,93,34,12,-76,64,41,94,91,59,56,60
50,85,34,8,-68,60,41,91,88,54,52,55
42,76,33,4,-59,55,41,87,84,49,47,50
33,68,33,0,-50,51,41,83,80,45,43,46
26,61,34,-4,-43,48,42,80,77,40,39,41
21,57,35,-7,-38,46,43,77,74,36,35,37
18,54,35,-9,-36,45,45,73,71,33,31,32
17,53,35,-10,-35,44,46,70,68,29,28,29
17,52,34,-9,-34,44,46,66,66,26,24,26
17,52,34,-9,-34,43,46,63,63,23,21,24
17,52,33,-9,-34,43,45,59,59,20,18,22
15,50,33,-10,-33,42,44,56,56,18,15,20
10,46,34,-12,-29,40,42,54,52,14,13,19
7,44,35,-14,-26,39,41,53,51,13,12,18
6,43,35,-15,-25,39,41,54,51,13,12,19
6,42,35,-15,-24,38,41,54,51,13,13,20
7,42,34,-14,-25,38,41,54,52,16,15,21
7,41,32,-13,-24,36,42,54,52,17,16,21
7,38,30,-12,-22,34,42,52,51,16,15,19
7,36,28,-11,-22,32,44,50,50,16,14,17
9,35,26,-9,-22,31,45,49,49,14,13,15
10,36,25,-8,-23,31,47,49,49,13,12,13
11,38,26,-8,-25,32,49,50,49,12,12,13
11,40,28,-9,-26,34,51,51,50,12,12,13
11,43,30,-10,-27,36,53,52,51,13,12,15
10,43,31,-11,-27,37,55,52,52,14,13,16
10,42,31,-11,-26,36,56,51,51,14,12,17
9,41,30,-11,-25,35,56,50,50,14,12,18
7,38,30,-12,-22,34,57,50,50,14,12,18
5,36,30,-13,-21,33,57,51,50,15,13,19
3,36,31,-14,-20,33,57,52,51,16,15,20
4,35,31,-14,-20,33,56,54,52,17,16,21
6,36,29,-11,-22,32,54,54,52,17,16,21
7,36,27,-10,-22,31,52,53,51,17,15,21
6,34,27,-10,-20,30,49,52,51,17,14,20
4,32,27,-11,-18,29,46,52,50,16,13,19
1,31,29,-14,-16,30,43,53,50,15,12,18
-1,31,31,-16,-14,31,41,53,50,14,11,17
-3,30,32,-17,-13,31,40,53,50,13,10,16
-4,30,32,-18,-13,32,39,52,50,12,9,14
-4,31,33,-18,-13,32,38,52,49,11,8,13
-2,32,33,-18,-15,33,38,51,49,10,7,12
0,36,34,-17,-18,35,37,52,49,9,7,11
2,39,35,-17,-21,37,38,53,49,9,7,11
3,43,38,-18,-23,41,40,53,50,10,8,11
4,46,40,-18,-25,43,42,53,50,10,8,11
4,47,41,-18,-26,44,44,52,50,10,9,12
4,47,41,-18,-26,44,46,51,50,11,9,12
4,46,40,-18,-26,43,47,50,49,10,8,13
3,45,41,-19,-25,42,48,50,49,10,8,14
1,44,42,-21,-23,43,50,51,49,11,9,15
-1,43,43,-22,-21,42,51,52,49,12,10,16
-3,42,44,-24,-20,42,52,53,50,14,12,17
-4,41,44,-25,-19,42,54,54,52,15,13,19
-4,41,44,-24,-19,42,54,56,53,17,15,20
-3,42,43,-24,-20,42,55,57,54,19,17,22
-1,44,43,-22,-22,43,55,58,56,20,19,23
2,47,43,-21,-25,44,54,59,57,21,20,25
6,51,43,-20,-28,46,54,60,58,22,22,27
10,55,45,-18,-32,49,54,61,60,24,24,29
13,60,46,-17,-36,52,53,62,61,25,26,31
16,64,48,-17,-40,55,53,63,63,28,28,33
17,67,50,-17,-42,58,53,63,64,30,30,36
18,69,51,-17,-44,60,53,64,65,31,31,38
18,70,51,-17,-45,61,52,64,66,33,33,40
17,70,51,-17,-45,61,52,65,67,34,34,41
17,69,51,-18,-44,60,51,65,67,36,35,42
16,68,51,-18,-43,60,51,66,68,37,36,43
15,67,51,-19,-42,59,51,66,68,38,37,44
14,67,51,-19,-41,59,50,67,68,39,38,44
13,66,52,-19,-41,59,50,67,68,40,38,45
13,66,52,-20,-40,59,50,67,68,40,39,46
12,67,53,-21,-40,60,49,67,68,40,39,46
11,67,54,-21,-40,60,49,67,68,40,39,47
11,68,55,-22,-40,61,48,67,68,40,40,48
11,69,56,-23,-40,62,47,68,68,39,40,48
11,70,57,-23,-41,63,46,68,68,39,40,49
11,70,58,-24,-41,64,45,67,67,39,40,49
11,71,58,-24,-41,64,44,66,66,39,39,50
10,70,59,-25,-41,64,43,65,65,39,39,50
10,70,59,-25,-40,64,43,65,65,40,39,51
9,69,59,-25,-40,64,43,65,64,40,39,51
9,69,60,-25,-40,64,43,65,65,41,40,52
9,70,60,-25,-40,65,43,66,65,42,41,52
10,71,60,-25,-41,65,44,67,66,43,42,52
10,71,60,-25,-42,66,45,68,66,44,43,52
11,72,59,-24,-42,66,45,68,66,44,43,52
13,73,58,-22,-43,65,46,68,66,44,43,52
15,73,57,-21,-44,65,46,68,66,44,43,52
17,73,55,-19,-45,64,46,67,65,43,42,52
19,73,53,-17,-46,63,46,66,64,42,42,52
21,72,51,-15,-46,62,45,65,63,41,42,52
21,71,49,-14,-46,60,44,63,61,40,41,51
20,68,48,-14,-44,58,42,61,60,39,40,51
18,65,46,-14,-42,56,40,60,59,39,40,51
16,62,46,-14,-40,54,38,60,58,39,39,50
14,60,45,-15,-38,52,37,60,58,39,40,50
13,59,45,-15,-37,51,36,61,59,40,40,51
12,58,45,-16,-36,51,36,62,59,40,41,51
11,57,45,-16,-35,51,36,62,59,41,41,51
11,58,45,-16,-35,51,36,62,59,41,41,51
12,59,46,-16,-36,53,36,61,59,41,40,51
14,61,46,-16,-38,54,37,61,59,40,40,51
16,63,47,-15,-40,55,37,60,58,40,39,50
18,65,47,-14,-42,56,38,58,58,39,38,50
20,67,46,-13,-44,56,38,57,56,38,37,49
22,68,45,-12,-45,56,38,55,55,36,36,48
23,68,44,-11,-46,56,38,54,54,34,35,47
24,69,43,-10,-47,56,38,53,53,33,34,46
25,69,43,-9,-47,56,38,52,52,32,34,45
24,68,42,-9,-46,55,38,51,52,32,34,44
23,66,42,-9,-45,54,38,50,51,31,33,44
22,64,41,-9,-43,52,39,49,50,31,32,43
20,61,40,-10,-41,51,39,47,49,30,31,42
19,59,40,-11,-39,49,39,45,47,29,30,42
17,57,40,-12,-37,48,39,44,46,29,29,41
15,55,40,-13,-35,48,39,43,45,28,28,41
13,55,41,-14,-34,48,39,43,45,28,28,42
12,55,42,-15,-34,49,40,43,45,28,28,42
12,57,43,-16,-35,51,40,44,46,29,29,43
13,59,46,-17,-37,53,41,46,47,30,30,44
14,63,48,-18,-39,56,42,48,49,31,31,45
14,67,51,-19,-41,59,42,50,50,32,33,46
15,71,55,-21,-43,63,43,53,52,34,35,48
15,75,59,-23,-45,67,43,56,53,35,37,49
14,78,63,-25,-46,71,44,59,55,37,39,51
14,82,67,-27,-48,75,44,62,57,39,41,53
13,85,71,-29,-49,78,44,64,59,41,43,54
13,87,73,-31,-50,81,45,67,61,43,45,56
13,90,76,-32,-51,83,46,69,63,45,47,57
13,92,77,-32,-52,85,47,71,65,47,48,58
13,93,79,-33,-53,86,49,73,66,49,50,59
14,94,80,-33,-54,87,51,74,68,50,51,59
15,96,81,-33,-55,88,54,74,68,51,51,59
17,98,82,-33,-57,90,56,74,69,51,51,59
19,102,83,-32,-60,93,59,74,69,51,51,59
22,106,85,-32,-64,96,61,74,69,51,51,59
24,111,88,-33,-67,100,63,74,69,52,52,60
25,116,92,-34,-70,104,65,75,69,53,53,61
26,122,96,-35,-74,109,67,77,70,55,55,64
28,128,100,-36,-78,114,69,79,70,58,58,67
29,134,103,-37,-82,118,70,82,71,62,61,70
32,139,106,-37,-86,123,71,85,72,66,65,74
34,143,108,-37,-89,126,71,88,73,71,69,78
36,147,110,-37,-92,129,71,91,75,75,72,82
38,150,111,-36,-95,131,70,93,77,78,75,86
40,152,112,-36,-96,133,69,96,80,80,78,89
41,154,113,-36,-98,134,67,98,82,82,80,92
42,156,114,-36,-100,136,65,100,84,84,82,95
44,159,115,-36,-102,137,63,101,85,85,84,97
46,161,116,-35,-104,139,60,102,86,86,85,99
48,164,116,-34,-107,140,57,101,87,86,85,100
50,166,116,-33,-109,141,54,100,86,86,85,101
52,168,116,-32,-110,142,50,98,85,86,85,101
54,170,115,-30,-112,142,46,95,84,85,85,101
58,171,113,-28,-114,142,43,93,83,84,84,100
62,172,109,-24,-117,141,39,91,81,83,83,99
66,171,105,-20,-119,138,36,88,79,82,82,97
69,169,100,-16,-119,135,32,85,77,80,80,94
71,165,94,-12,-118,130,29,82,74,77,77,91
71,159,88,-9,-115,124,26,78,71,73,73,86
70,151,81,-6,-111,116,23,75,68,69,69,82
67,142,75,-4,-105,108,22,71,65,65,65,77
64,133,68,-2,-99,101,21,68,63,61,61,72
60,123,63,-1,-92,93,20,65,60,57,57,68
54,113,58,-2,-84,85,20,62,58,54,54,64
48,103,54,-3,-76,78,20,59,55,51,50,59
41,92,50,-4,-67,70,20,55,51,48,47,55
34,81,46,-6,-58,62,20,51,47,45,43,50
27,69,42,-7,-48,55,19,46,43,41,38,46
20,58,38,-9,-39,48,18,41,38,36,33,41
13,48,35,-11,-30,41,16,36,34,31,29,36
6,39,33,-13,-23,36,15,31,29,27,24,31
1,33,31,-15,-17,32,14,26,25,22,20,27
-2,29,30,-15,-13,28,13,22,22,19,16,23
-3,26,28,-15,-11,26,13,19,19,16,13,20
-4,25,27,-15,-10,25,14,16,16,14,11,18
-4,23,26,-15,-9,24,15,15,14,12,9,16
-5,22,26,-15,-8,23,16,13,13,11,8,14
-7,20,25,-15,-6,22,17,12,11,11,8,14
-8,18,25,-16,-4,21,17,11,11,10,8,13
-9,16,24,-16,-3,20,17,10,11,10,8,13
-9,14,23,-15,-2,18,17,9,10,11,9,13
-9,13,21,-15,-1,17,17,9,10,11,9,12
-9,11,19,-13,-1,15,16,8,10,11,9,12
-9,9,16,-12,0,12,16,7,9,11,9,11
-8,6,13,-10,1,9,15,6,8,10,8,10
-7,5,10,-8,1,7,13,5,6,9,7,8
-5,4,8,-6,1,6,12,4,5,8,7,7
-3,4,6,-4,0,5,10,3,4,7,6,6
-1,5,5,-2,-2,4,9,2,3,6,5,5
1,5,4,-1,-3,4,7,1,2,5,5,4
2,5,3,0,-4,4,5,1,1,4,4,3
2,5,2,0,-4,3,4,0,0,3,3,2
7,8,1,4,-6,5,3,0,-1,3,3,3
4,5,0,2,-4,2,1,1,-1,1,1,1
0,0,0,0,0,0,0,0,0,0,0,0
-4,-4,1,-2,5,-2,1,3,2,0,-1,-2
-9,-10,0,-4,10,-5,2,7,5,-1,-2,-4
-12,-14,-1,-5,14,-8,5,13,10,-3,-4,-6
-13,-14,0,-6,15,-7,9,24,19,-2,-2,-6
-13,-12,0,-7,14,-7,15,35,29,-1,-2,-8
-10,-2,8,-9,7,3,21,53,48,9,12,2
-6,11,16,-10,-1,14,27,74,66,23,25,19
13,42,29,-7,-27,36,30,107,95,52,57,48
33,80,47,-6,-54,62,33,142,128,86,94,91
55,109,54,0,-82,83,21,183,166,144,154,151
79,142,65,9,-109,104,8,222,201,209,222,225
138,201,61,39,-167,131,-7,250,230,282,297,315
207,262,54,76,-232,159,-23,272,252,362,379,419
255,308,53,104,-282,181,-46,295,271,446,461,533
311,356,48,131,-330,202,-73,314,284,534,549,655
353,431,76,140,-392,253,-95,330,295,626,641,784
401,509,110,146,-453,311,-116,344,302,718,737,918
432,605,174,129,-518,390,-122,359,312,812,831,1054
456,709,253,102,-582,481,-123,374,324,905,920,1189
457,718,261,100,-586,488,-130,349,308,947,949,1217
449,716,268,90,-582,492,-136,321,289,980,968,1231
408,684,275,67,-543,479,-130,252,227,904,881,1125
356,633,279,38,-494,456,-122,175,160,800,768,983
289,593,304,-7,-440,448,-111,92,82,661,622,828
214,534,320,-52,-372,427,-104,-4,-6,490,445,634
150,440,290,-70,-294,364,-95,-94,-92,330,285,464
79,328,249,-84,-201,288,-89,-194,-192,145,103,271
37,248,210,-88,-141,231,-76,-245,-244,21,-16,131
-4,176,181,-92,-85,179,-63,-292,-289,-101,-124,5
-41,130,171,-105,-43,148,-56,-316,-314,-176,-197,-78
-72,100,174,-123,-12,136,-50,-320,-320,-224,-237,-124
-86,99,184,-135,-6,142,-43,-303,-308,-237,-242,-130
-85,113,200,-142,-12,157,-35,-269,-277,-218,-213,-106
-75,125,201,-139,-24,163,-31,-224,-234,-175,-167,-73
-60,138,197,-126,-39,168,-27,-175,-185,-123,-113,-38
-42,136,180,-110,-45,158,-25,-134,-144,-79,-71,-20
-26,127,152,-89,-49,139,-24,-99,-106,-47,-43,-20
-23,110,132,-78,-42,123,-25,-81,-86,-35,-35,-30
-26,89,114,-70,-30,102,-22,-71,-73,-38,-39,-48
-22,74,98,-60,-25,85,-20,-69,-69,-50,-53,-64
-21,64,84,-52,-21,74,-18,-65,-67,-60,-63,-70
-32,55,87,-60,-9,72,-15,-55,-56,-59,-57,-66
-45,48,93,-69,-1,72,-9,-39,-41,-42,-38,-47
-38,47,87,-64,-2,66,-11,-17,-25,-21,-16,-26
-31,47,77,-52,-7,61,-9,4,-7,4,9,-6
-21,51,72,-46,-13,61,-5,17,8,25,29,13
-11,54,67,-37,-22,61,1,26,19,41,41,22
-10,49,58,-34,-19,52,2,26,24,44,43,14
-7,40,49,-26,-13,45,3,24,22,37,39,5
3,45,43,-20,-23,44,4,25,24,28,29,-4
13,52,39,-12,-31,46,8,25,23,21,20,-7
14,50,36,-11,-31,43,4,27,26,30,32,5
17,51,34,-9,-34,43,3,29,29,35,36,11
17,52,34,-8,-35,44,3,32,33,42,43,19
15,50,35,-10,-33,43,2,35,36,49,51,25
10,46,36,-13,-28,41,1,36,38,54,55,28
6,41,35,-15,-24,38,0,36,38,56,57,27
3,36,32,-15,-20,34,-2,34,36,54,55,24
3,33,30,-14,-18,31,-3,33,34,51,52,20
5,35,30,-13,-20,32,-3,33,34,48,49,19
6,37,31,-13,-22,33,-2,33,34,46,48,19
6,41,35,-15,-23,37,-1,34,35,46,49,21
6,43,37,-16,-24,39,0,36,37,48,51,24
6,43,37,-16,-24,39,-1,37,38,51,54,27
7,44,37,-15,-25,40,-1,39,40,54,57,30
11,47,36,-13,-28,40,-2,41,42,58,60,33
14,50,36,-11,-31,42,-2,43,44,61,62,36
15,52,37,-11,-33,44,-1,45,46,62,64,37
15,53,38,-11,-34,45,-1,46,48,63,65,39
13,51,38,-12,-32,45,-1,47,49,65,66,40
11,49,38,-14,-29,44,-1,48,50,66,68,41
9,46,37,-14,-27,42,-2,49,51,67,69,43
8,45,37,-14,-26,41,-2,50,52,69,71,44
9,46,37,-14,-27,42,-3,52,54,70,73,46
9,48,38,-14,-29,43,-4,55,56,72,75,47
9,50,40,-15,-30,45,-5,56,58,74,77,48
10,52,41,-15,-31,46,-7,58,59,76,79,48
11,53,41,-15,-32,47,-9,59,60,78,80,48
13,54,40,-14,-34,47,-11,60,60,79,81,47
16,55,39,-12,-36,47,-12,61,61,80,82,48
17,56,38,-11,-37,47,-13,62,62,81,83,48
18,57,38,-10,-38,47,-13,64,63,83,84,50
18,58,39,-11,-39,48,-13,66,64,85,87,52
18,59,40,-11,-39,49,-13,68,66,88,89,54
18,60,42,-12,-40,50,-13,70,67,90,92,56
18,61,43,-13,-40,52,-13,72,68,93,94,58
19,63,44,-13,-41,53,-13,74,70,96,96,60
22,66,45,-12,-44,55,-14,77,73,98,99,63
23,69,46,-12,-46,57,-14,79,75,101,102,65
24,72,48,-12,-47,59,-14,81,77,105,105,67
24,73,50,-12,-49,61,-14,82,78,107,106,68
24,75,51,-13,-50,62,-16,81,78,107,106,68
26,77,51,-13,-52,64,-18,81,77,107,106,68
28,80,52,-12,-55,66,-19,82,77,107,106,70
30,84,53,-12,-58,68,-20,84,78,109,108,71
31,88,55,-12,-60,71,-21,87,80,111,110,74
33,92,58,-13,-63,75,-22,90,82,115,113,77
34,96,61,-14,-65,78,-24,93,84,117,115,79
35,99,63,-14,-67,80,-25,96,87,120,118,82
38,101,63,-13,-70,81,-25,99,90,123,121,84
40,102,62,-11,-71,81,-24,101,92,125,123,86
43,102,59,-8,-72,80,-24,102,94,127,125,87
44,102,58,-7,-73,79,-23,103,95,128,125,87
45,102,57,-6,-73,79,-22,104,95,128,125,88
46,103,57,-6,-74,79,-22,104,95,128,125,88
46,104,58,-6,-75,80,-21,105,95,128,125,88
48,106,58,-6,-76,82,-21,106,96,128,126,90
51,110,59,-5,-80,85,-21,108,99,129,128,92
53,114,61,-4,-83,88,-22,110,102,131,131,96
55,118,63,-5,-86,91,-23,114,106,135,135,100
56,122,66,-6,-89,95,-24,118,109,138,139,104
55,125,69,-7,-90,97,-25,120,112,141,142,107
56,128,71,-8,-92,100,-26,123,115,144,145,109
59,132,72,-7,-96,102,-27,125,117,147,148,112
62,135,72,-6,-99,104,-28,127,120,150,151,115
65,137,71,-4,-102,105,-29,129,123,153,153,118
66,139,72,-3,-104,106,-30,131,125,155,156,122
66,141,74,-5,-105,108,-30,134,128,158,159,127
67,143,75,-5,-106,109,-31,137,130,161,161,130
69,145,76,-4,-108,111,-31,140,132,164,164,133
72,149,76,-3,-111,113,-32,142,133,165,166,135
76,153,76,-1,-115,115,-33,143,134,166,167,136
80,158,77,1,-120,119,-34,145,137,167,169,138
84,165,80,1,-125,123,-34,147,139,168,171,141
88,171,82,2,-130,127,-36,149,142,170,173,143
91,175,83,3,-133,130,-37,150,143,171,175,145
94,179,84,4,-137,131,-39,151,144,173,176,146
98,182,83,7,-140,133,-42,152,145,174,177,147
101,184,83,8,-142,134,-45,152,145,175,177,148
101,186,84,8,-144,134,-47,152,146,176,178,149
101,187,84,7,-144,135,-48,152,146,177,178,149
101,188,86,6,-145,136,-49,153,147,178,178,150
101,190,87,6,-146,138,-49,155,148,179,179,152
102,194,90,6,-148,141,-48,157,149,179,180,154
104,197,92,5,-151,144,-46,159,151,181,181,156
104,200,94,5,-152,146,-44,161,152,182,182,157
105,202,96,4,-154,148,-43,163,153,182,183,158
106,203,95,5,-155,149,-42,163,153,182,183,157
109,204,94,7,-157,149,-41,162,153,182,182,156
113,206,92,10,-159,149,-41,161,152,180,180,154
115,207,91,12,-161,149,-41,159,150,178,178,151
116,208,91,12,-162,149,-41,158,149,177,176,149
116,208,91,12,-162,150,-42,157,148,176,174,146
115,207,92,12,-161,150,-43,155,146,175,172,143
114,206,92,11,-160,149,-44,154,145,174,170,140
114,205,91,12,-160,148,-45,153,144,172,168,138
112,203,90,11,-158,147,-46,152,142,171,167,137
108,199,90,9,-154,145,-48,150,141,171,166,136
104,196,91,7,-151,144,-48,149,140,171,165,135
100,192,91,5,-147,142,-49,147,139,170,165,134
96,188,91,2,-143,140,-49,145,137,169,164,132
92,184,91,0,-139,138,-49,143,134,167,163,129
87,179,91,-3,-134,135,-49,140,132,165,161,127
81,174,91,-6,-128,132,-49,137,129,163,159,124
76,168,91,-8,-123,129,-48,133,126,161,157,121
71,163,91,-10,-118,126,-47,130,122,159,155,118
67,159,90,-12,-114,124,-45,126,119,157,153,115
64,154,88,-12,-110,120,-42,122,115,155,151,113
61,148,86,-13,-105,117,-39,118,111,153,150,111
56,140,84,-14,-99,112,-36,114,108,152,148,108
50,131,81,-16,-91,106,-33,109,104,149,144,104
42,121,79,-19,-81,100,-31,103,99,145,140,99
36,112,76,-20,-74,94,-29,97,93,140,135,93
33,106,74,-21,-70,90,-27,91,88,135,130,88
31,102,71,-21,-66,87,-26,86,84,130,126,83
31,100,69,-20,-65,85,-24,81,80,126,122,78
29,97,69,-21,-63,83,-23,77,76,122,118,74
24,93,68,-23,-58,80,-23,72,73,118,115,69
20,88,69,-25,-54,78,-24,68,70,114,111,65
15,85,69,-28,-50,76,-24,65,67,110,109,62
12,81,68,-29,-47,74,-24,63,65,107,107,60
11,79,67,-28,-45,72,-23,61,63,105,105,59
10,76,65,-28,-43,70,-22,59,61,103,104,58
9,74,64,-27,-42,68,-21,57,59,103,103,57
7,71,63,-28,-39,66,-20,55,57,102,102,57
4,67,63,-30,-35,64,-20,53,56,101,101,56
0,64,63,-31,-32,63,-19,51,54,101,100,55
-2,62,64,-33,-30,62,-17,49,53,101,99,53
-3,61,64,-34,-29,62,-16,48,52,100,98,52
-3,62,64,-33,-30,63,-16,47,51,99,96,50
0,63,63,-31,-32,63,-16,46,50,98,94,47
5,65,60,-28,-35,63,-16,45,48,96,92,44
9,66,57,-24,-38,62,-16,43,47,93,90,41
13,67,54,-21,-40,61,-15,42,46,91,88,38
14,67,52,-19,-41,60,-14,41,44,88,86,36
13,66,52,-20,-40,60,-13,39,43,86,84,35
12,65,53,-21,-39,60,-13,38,41,84,82,34
9,64,54,-23,-37,59,-14,37,40,82,81,32
6,63,55,-25,-35,59,-15,36,39,81,80,31
3,61,57,-28,-33,59,-17,34,38,78,78,30
-1,60,59,-31,-30,60,-19,33,37,76,76,28
-4,59,61,-33,-28,61,-20,32,36,74,74,27
-8,57,63,-36,-25,61,-21,31,35,73,72,26
-12,54,65,-38,-22,60,-22,30,35,72,72,25
-15,52,65,-40,-19,59,-22,29,35,71,71,24
-16,51,65,-41,-18,58,-21,30,35,71,71,24
-15,51,64,-39,-18,57,-20,31,35,71,71,24
-10,52,60,-36,-21,56,-18,32,35,72,72,25
-5,52,56,-31,-23,54,-17,33,36,73,72,26
-3,51,53,-29,-24,52,-16,34,36,73,73,26
-2,49,50,-27,-24,50,-15,34,36,74,74,27
-3,47,50,-27,-22,48,-14,35,37,73,74,27
-5,46,50,-28,-21,48,-13,35,37,73,74,27
-5,46,50,-29,-20,48,-12,35,37,72,74,27
-7,45,51,-30,-19,48,-12,35,37,71,73,26
-9,44,52,-31,-18,48,-12,35,37,70,73,25
-11,44,54,-34,-16,49,-12,35,37,69,72,25
-14,45,58,-37,-16,52,-13,37,38,69,72,24
-15,48,61,-39,-17,54,-13,39,39,70,73,24
-13,52,64,-40,-20,58,-12,41,41,71,74,25
-11,56,65,-39,-23,60,-12,43,42,73,74,26
-8,59,64,-37,-26,61,-12,44,43,74,75,27
-5,61,64,-36,-28,63,-11,45,44,75,75,28
-3,63,65,-35,-30,64,-11,45,45,75,75,28
-2,64,65,-35,-31,65,-11,45,46,76,75,29
-2,66,66,-35,-32,67,-10,45,47,76,75,29
-1,67,67,-36,-33,68,-9,46,48,76,75,30
0,69,68,-36,-34,70,-8,46,49,77,76,31
1,72,70,-36,-36,72,-7,47,50,78,77,32
2,74,71,-36,-38,73,-6,47,51,79,78,34
3,76,72,-36,-40,75,-6,48,51,80,80,35
4,78,73,-36,-41,76,-7,49,52,82,81,37
3,78,74,-36,-41,77,-8,50,52,84,83,39
2,78,75,-37,-41,77,-10,50,53,86,84,40
1,77,76,-38,-40,77,-12,51,53,87,86,42
0,77,76,-39,-39,76,-14,51,54,89,87,44
0,76,75,-38,-39,76,-16,52,55,90,88,46
1,76,74,-37,-39,75,-18,52,55,91,89,48
3,77,73,-36,-40,74,-19,52,56,91,89,49
5,77,71,-34,-42,74,-20,52,56,91,90,50
8,78,70,-32,-43,74,-20,52,56,91,90,51
10,80,69,-30,-45,75,-20,51,55,91,90,51
13,82,68,-29,-48,75,-20,51,55,91,90,52
16,84,68,-27,-50,76,-19,50,54,91,90,52
18,87,68,-26,-53,77,-19,50,54,90,90,53
20,89,68,-25,-55,78,-18,49,53,90,90,53
22,91,68,-24,-57,79,-18,49,53,89,90,54
22,93,69,-24,-58,80,-18,48,53,89,90,54
22,94,71,-25,-58,82,-17,48,52,90,90,55
21,95,73,-26,-58,84,-17,48,52,90,90,56
20,96,75,-28,-58,85,-17,47,52,91,90,57
18,96,77,-30,-57,86,-16,47,51,91,90,57
17,96,78,-31,-56,87,-16,46,51,91,90,58
15,95,79,-32,-55,87,-15,46,51,92,90,58
14,94,79,-33,-54,86,-14,45,50,92,89,58
12,92,79,-34,-53,86,-13,45,50,92,89,58
11,90,79,-34,-51,85,-12,44,50,92,89,58
10,89,78,-34,-50,84,-11,44,50,92,89,58
10,88,77,-34,-50,83,-11,44,50,92,89,58
11,87,75,-32,-50,82,-10,44,50,92,88,58
13,87,73,-30,-51,80,-11,45,51,92,88,58
15,87,70,-28,-52,79,-11,45,51,92,88,58
18,86,68,-25,-53,77,-12,46,51,91,87,58
20,87,65,-23,-54,76,-13,46,50,91,87,58
23,87,63,-20,-55,75,-14,46,49,90,86,58
25,87,61,-18,-56,74,-14,46,48,89,85,58
27,87,59,-17,-57,74,-14,45,47,89,85,58
27,86,58,-16,-57,73,-13,44,47,88,84,58
27,85,58,-17,-56,72,-11,43,46,87,83,58
25,84,58,-18,-54,72,-10,42,46,85,82,58
22,82,59,-20,-52,71,-9,42,45,84,81,57
19,80,60,-22,-50,70,-7,41,45,82,80,57
16,78,61,-24,-48,70,-6,41,44,81,80,56
14,77,62,-25,-46,69,-6,41,44,80,79,55
12,75,62,-26,-44,68,-5,41,44,79,78,54
11,73,62,-26,-43,67,-5,41,43,78,77,53
9,71,61,-26,-41,65,-6,40,42,76,76,52
7,67,60,-27,-38,63,-7,39,41,75,74,50
4,64,59,-28,-35,60,-8,37,39,73,72,49
0,60,58,-29,-31,58,-9,36,38,72,70,48
-2,57,58,-30,-29,56,-10,35,36,70,68,47
-3,56,57,-30,-28,55,-11,34,35,68,67,47
-1,56,56,-29,-28,55,-12,33,34,67,66,46
2,58,55,-27,-31,56,-12,33,33,66,65,46
6,61,54,-24,-34,57,-12,33,33,65,65,47
9,63,53,-22,-37,58,-11,33,33,65,65,47
13,66,53,-20,-40,59,-11,33,33,64,65,47
16,68,52,-18,-42,60,-10,33,33,64,64,48
18,69,51,-16,-44,60,-9,33,33,63,63,48
20,70,49,-15,-46,60,-8,32,33,62,62,48
21,71,48,-14,-47,60,-6,32,33,61,61,48
22,72,49,-14,-47,60,-5,32,34,60,61,49
21,73,50,-15,-48,61,-3,33,35,60,62,49
21,74,52,-16,-48,63,-1,34,36,61,63,50
20,77,55,-18,-49,66,1,36,38,62,64,52
20,80,59,-20,-51,70,3,38,40,64,66,54
21,84,62,-21,-53,74,5,40,43,66,68,56
22,89,66,-23,-56,78,7,42,45,68,70,58
23,94,70,-25,-59,83,9,44,47,70,72,61
23,99,75,-27,-61,87,10,47,50,72,74,63
23,103,79,-29,-63,91,11,49,52,75,76,65
22,106,83,-32,-64,95,12,51,54,77,78,67
20,108,87,-34,-65,98,12,53,56,79,79,69
19,110,90,-36,-65,100,13,54,58,81,80,71
18,111,92,-38,-65,102,14,55,59,82,81,72
17,112,94,-39,-66,103,15,56,60,82,82,73
18,114,95,-40,-66,104,17,57,61,83,83,74
19,116,96,-40,-68,106,19,58,62,83,83,75
20,119,98,-40,-70,108,22,59,62,83,84,76
23,123,99,-39,-74,111,25,59,63,84,85,77
26,128,101,-39,-78,114,28,60,63,84,86,78
28,132,102,-38,-81,117,31,60,64,85,87,79
31,137,104,-38,-85,121,33,61,64,86,88,80
33,141,106,-37,-88,123,34,61,65,87,89,82
35,144,107,-37,-91,126,34,62,65,88,90,84
37,148,109,-37,-93,129,33,64,66,89,91,86
39,152,111,-37,-96,132,33,66,68,91,93,88
41,156,113,-37,-99,135,32,69,70,94,96,91
44,161,116,-37,-102,138,30,71,72,97,98,94
47,165,117,-36,-106,141,29,74,74,100,100,96
50,169,118,-35,-110,143,28,76,75,103,102,99
54,173,118,-33,-114,145,27,78,76,105,103,101
58,177,118,-30,-118,147,26,79,76,107,104,103
62,180,117,-28,-121,148,25,80,76,108,105,104
66,183,116,-26,-124,149,24,80,75,109,105,105
68,185,115,-24,-126,150,22,80,74,109,104,106
70,185,114,-23,-128,150,21,78,73,109,103,106
71,184,112,-21,-128,149,18,76,71,107,102,105
72,182,109,-20,-127,146,16,73,69,105,100,104
71,177,105,-18,-124,142,13,69,66,102,97,102
69,171,100,-16,-120,136,9,65,63,98,94,99
67,163,94,-15,-115,129,6,60,59,94,90,95
64,153,88,-13,-109,121,4,56,56,89,85,91
60,143,82,-12,-102,113,2,52,53,84,81,87
56,133,76,-11,-95,105,0,48,50,79,76,82
51,122,69,-10,-87,96,-1,45,47,75,71,77
47,111,63,-9,-80,88,-2,41,44,70,66,71
43,100,56,-7,-72,79,-2,37,41,65,61,66
39,90,50,-6,-65,71,-3,33,38,59,56,60
35,81,44,-5,-58,63,-2,29,34,54,51,54
32,72,39,-4,-52,57,-2,25,31,49,47,49
29,65,35,-4,-47,51,-1,22,28,44,43,44
26,59,32,-4,-42,46,0,19,24,40,39,39
23,53,28,-4,-38,42,-1,15,21,36,35,34
21,47,24,-3,-34,37,-1,12,17,32,31,30
20,42,21,-2,-31,32,-2,8,14,28,27,26
19,37,17,-1,-28,28,-3,5,11,24,23,23
18,34,14,0,-26,24,-4,3,8,21,20,20
17,31,13,1,-24,22,-5,1,7,18,18,17
16,28,11,1,-22,20,-5,0,5,16,17,16
14,26,10,1,-20,18,-6,-1,4,15,16,15
13,23,9,1,-18,16,-6,-3,3,14,15,14
10,19,8,0,-15,14,-7,-4,1,12,13,13
6,15,8,-2,-11,12,-8,-6,0,11,12,12
2,11,8,-5,-7,10,-8,-7,-2,10,11,11
-3,7,9,-7,-3,8,-9,-8,-2,9,9,11
-7,4,10,-10,1,7,-9,-9,-3,8,8,10
-10,1,10,-12,4,6,-9,-9,-3,7,7,10
-12,-1,10,-12,6,5,-8,-9,-3,6,6,9
-12,-2,9,-12,7,4,-8,-9,-3,6,5,9
-12,-3,8,-11,7,3,-8,-9,-3,5,4,8
-12,-4,7,-10,7,2,-7,-9,-3,5,3,7
-11,-4,6,-9,7,1,-7,-8,-3,4,3,6
-9,-4,5,-8,6,1,-6,-8,-3,4,2,5
-8,-3,4,-7,5,0,-5,-7,-3,3,2,4
-6,-2,3,-5,3,0,-4,-5,-2,2,1,3
-3,-1,3,-3,3,1,-3,-4,-2,3,2,3
0,0,1,-1,1,0,0,-1,0,1,1,2
0,0,0,0,0,0,0,0,0,0,0,0
0,0,0,0,1,0,2,3,4,0,0,-1
-2,-4,-1,-1,4,-2,4,8,9,-2,-1,-3
-3,-5,-1,-2,5,-3,7,16,17,-1,0,-4
-8,-11,-4,-2,11,-8,8,24,25,-5,-3,-7
-1,3,5,-3,0,4,15,38,39,3,6,-1
7,18,13,-3,-12,17,21,57,55,11,17,13
18,45,26,-4,-31,35,22,86,80,32,42,38
29,71,42,-7,-49,56,22,117,109,60,69,74
59,108,49,5,-82,79,14,152,141,110,121,126
91,150,58,16,-121,103,5,188,176,167,182,191
131,183,55,37,-155,119,-13,215,201,230,247,271
172,221,48,62,-196,136,-31,240,223,301,318,366
231,275,43,94,-250,159,-48,265,242,380,399,472
295,330,36,129,-311,182,-69,291,259,464,485,590
352,403,53,151,-378,228,-87,316,285,561,585,718
410,479,68,171,-443,273,-108,336,306,664,686,852
455,582,127,163,-519,355,-117,351,318,762,785,990
496,695,199,148,-593,447,-124,364,328,861,886,1131
504,720,216,143,-610,468,-130,355,318,919,933,1188
500,738,238,132,-620,488,-135,343,308,972,970,1233
469,705,236,116,-585,470,-133,287,256,921,909,1151
423,654,230,97,-537,441,-131,220,196,848,823,1036
359,618,258,51,-487,437,-120,134,116,710,678,890
279,556,276,1,-417,416,-110,31,23,541,501,702
208,467,260,-26,-335,363,-104,-68,-71,383,340,534
128,355,228,-49,-241,292,-101,-179,-176,201,154,336
70,261,189,-60,-164,226,-93,-245,-241,56,17,184
17,171,153,-68,-92,161,-87,-306,-305,-88,-116,36
-32,115,146,-90,-40,131,-75,-340,-338,-181,-204,-62
-73,81,155,-113,-4,119,-65,-358,-353,-244,-259,-128
-89,76,162,-126,7,120,-55,-345,-344,-273,-277,-148
-92,87,178,-136,2,133,-49,-312,-316,-264,-260,-134
-85,99,185,-134,-7,143,-44,-270,-274,-231,-220,-104
-74,109,183,-128,-16,145,-43,-221,-225,-177,-168,-67
-63,109,173,-119,-24,142,-36,-169,-176,-128,-117,-38
-54,100,154,-104,-24,128,-27,-123,-128,-86,-77,-24
-50,84,134,-92,-17,108,-24,-99,-101,-65,-62,-28
-48,63,110,-78,-6,87,-20,-82,-82,-60,-60,-42
-40,49,88,-64,-5,68,-17,-78,-73,-69,-72,-60
-30,40,72,-51,-5,56,-11,-76,-69,-82,-83,-75
-30,34,61,-47,-1,48,-10,-68,-64,-84,-86,-76
-28,32,58,-42,-1,44,-7,-59,-52,-80,-78,-67
-26,36,61,-44,-3,48,0,-40,-37,-63,-60,-46
-26,40,65,-45,-6,53,8,-18,-16,-41,-35,-25
-11,50,60,-36,-19,55,12,-4,-1,-19,-12,-9
4,57,52,-22,-30,54,14,7,11,-1,4,-3
5,47,41,-20,-24,43,15,12,15,6,7,-4
0,31,31,-15,-16,30,15,10,15,1,3,-13
3,25,20,-9,-12,22,16,13,15,-5,-7,-20
5,19,14,-6,-11,17,13,13,15,-13,-11,-25
5,24,18,-6,-14,20,17,14,14,-15,-13,-20
8,30,20,-7,-19,25,18,20,21,-1,2,-5
8,31,22,-8,-20,27,19,24,25,7,9,2
7,33,24,-9,-21,29,20,28,29,14,15,9
7,33,24,-9,-21,29,21,31,33,20,21,14
8,33,23,-8,-21,29,22,34,35,23,23,16
10,33,21,-6,-23,28,23,35,36,24,23,16
11,32,20,-5,-22,27,23,36,38,23,22,15
9,30,20,-7,-20,26,24,36,38,21,20,14
5,26,20,-9,-17,24,25,37,38,20,19,14
0,23,21,-12,-12,23,25,37,39,20,19,15
-3,20,22,-13,-9,21,25,38,39,21,20,16
-2,19,20,-12,-10,20,24,38,39,21,21,16
0,20,18,-10,-11,20,24,39,39,22,22,17
5,23,17,-6,-15,20,25,40,40,22,23,19
8,25,16,-4,-18,20,25,41,41,22,23,20
9,26,16,-4,-19,21,25,42,42,21,23,20
11,27,15,-2,-20,21,25,41,42,20,22,18
14,27,12,0,-21,19,24,40,41,18,20,15
17,28,10,3,-24,19,23,38,40,16,18,13
22,32,8,7,-28,20,23,38,40,15,17,13
27,36,8,9,-32,21,24,39,41,16,17,13
30,40,9,10,-36,24,26,41,44,17,20,15
31,43,11,9,-38,27,28,44,47,20,23,17
29,44,15,6,-37,29,29,47,50,24,27,19
27,44,17,4,-36,31,29,48,53,27,29,22
26,44,18,4,-35,31,29,49,54,29,30,23
27,44,17,4,-36,31,28,49,55,31,31,25
30,46,15,7,-38,31,28,50,56,32,31,26
33,47,13,10,-41,31,28,51,57,33,32,28
34,48,12,11,-42,30,29,53,59,34,34,30
36,48,11,12,-42,30,29,54,59,36,35,31
37,48,9,14,-43,29,29,56,60,38,37,32
37,48,9,14,-43,28,30,57,61,39,38,33
37,48,9,14,-43,28,31,59,62,41,39,34
37,48,9,14,-43,29,31,60,63,42,41,35
37,48,10,13,-43,29,31,62,65,44,43,36
37,49,11,13,-44,30,31,65,67,47,46,38
37,51,13,12,-45,32,30,67,69,50,48,39
36,52,14,11,-45,33,30,68,71,52,50,40
34,52,17,8,-45,34,30,70,73,53,51,41
33,52,18,7,-44,35,29,70,74,53,51,40
32,52,19,6,-44,36,27,71,74,53,51,40
32,53,20,5,-44,37,26,71,75,52,50,40
32,55,22,4,-45,39,24,71,75,52,50,41
33,59,24,4,-47,42,24,72,76,52,51,42
34,63,28,2,-50,45,24,73,78,54,52,44
36,67,31,1,-53,49,25,76,81,56,55,46
37,71,34,1,-55,52,26,79,84,59,58,49
37,74,36,0,-57,54,26,83,88,62,61,52
38,76,37,0,-59,56,26,86,91,65,64,55
39,78,38,0,-60,57,26,89,94,68,66,57
40,80,39,0,-61,59,26,91,96,70,69,59
41,82,39,1,-63,60,27,93,98,72,71,61
44,85,40,2,-66,62,28,96,101,74,74,64
47,89,41,2,-69,65,30,100,103,76,77,68
50,94,43,3,-73,69,32,103,107,79,80,72
53,99,45,4,-77,73,33,106,110,83,83,76
57,104,47,5,-82,76,33,109,113,86,85,79
62,110,47,7,-87,79,33,111,116,88,88,82
67,115,48,9,-92,82,31,114,118,90,89,84
71,120,49,11,-96,84,30,117,121,92,91,86
73,124,50,11,-99,87,29,119,123,93,92,89
74,126,51,11,-100,89,28,122,126,95,94,91
74,126,51,11,-100,89,25,123,128,98,95,92
75,126,50,12,-101,88,23,124,129,100,97,93
78,127,48,14,-102,88,21,125,131,102,99,95
80,128,47,16,-104,88,19,127,132,104,101,96
81,129,48,16,-105,89,19,129,134,105,103,98
82,131,48,17,-107,90,19,131,135,106,105,100
83,133,49,17,-109,91,18,133,136,107,106,100
85,136,49,18,-111,92,17,135,138,108,107,101
89,140,49,20,-115,94,15,137,139,109,108,102
92,143,49,21,-118,96,13,140,141,109,109,104
95,147,50,22,-122,98,12,144,143,110,111,106
99,151,50,24,-126,100,10,147,145,111,113,109
103,155,51,25,-130,103,9,151,149,113,116,111
106,160,52,26,-134,106,9,154,152,116,119,114
108,164,55,26,-137,109,9,157,155,119,122,118
110,167,57,26,-139,112,10,160,158,121,125,121
111,170,58,26,-141,114,10,163,161,123,127,124
113,172,58,28,-143,115,11,164,162,124,128,126
117,174,55,31,-146,114,11,163,162,124,128,126
121,175,53,34,-149,114,11,162,160,122,128,125
124,176,51,37,-151,114,11,159,157,120,126,123
125,177,51,38,-151,114,11,156,154,118,124,121
124,176,51,37,-151,114,12,154,152,116,122,120
124,176,51,37,-151,114,12,152,150,115,119,119
126,177,50,38,-152,113,13,151,148,114,118,118
129,178,48,40,-154,113,14,150,147,113,117,117
131,180,47,42,-156,113,15,151,146,113,117,117
134,181,46,44,-158,113,16,151,145,113,116,117
136,181,44,45,-159,113,16,151,144,112,115,117
136,182,44,46,-160,113,17,151,144,112,115,118
136,183,46,44,-160,114,19,152,145,113,115,119
134,184,48,43,-159,115,20,152,146,113,115,120
131,183,50,40,-158,116,21,151,147,114,116,121
130,182,50,39,-156,115,21,150,147,114,116,121
129,179,49,40,-155,113,20,148,145,114,116,120
128,176,47,40,-153,111,20,146,144,113,115,118
126,172,44,41,-151,108,21,144,143,112,115,116
122,167,43,40,-147,105,22,142,141,111,113,113
117,161,43,37,-141,102,23,139,139,109,112,111
110,155,43,33,-134,99,24,136,136,108,110,109
102,148,44,29,-126,96,25,133,133,106,107,107
95,140,44,25,-119,92,25,129,130,104,104,104
89,133,43,23,-112,88,25,124,125,101,101,100
83,125,41,20,-105,83,25,119,121,98,97,96
77,118,41,18,-99,80,24,113,116,94,93,91
71,112,40,15,-93,76,25,107,111,90,88,86
65,107,41,12,-88,74,27,102,107,86,83,82
59,103,42,9,-82,72,29,98,103,81,78,77
53,99,44,5,-78,71,31,94,100,77,74,73
48,95,45,2,-73,70,34,90,96,73,70,68
44,91,45,0,-68,68,36,87,93,69,66,64
40,87,45,-2,-64,66,38,84,90,65,63,60
37,82,44,-4,-60,63,39,81,86,61,61,57
33,77,43,-5,-56,60,40,78,82,58,58,54
31,73,41,-5,-52,57,40,74,78,55,55,50
28,68,39,-5,-48,53,40,70,73,51,51,46
26,63,36,-5,-45,49,40,66,68,46,46,41
22,57,35,-6,-40,45,39,61,63,42,42,36
15,49,34,-9,-33,41,38,57,58,38,37,32
9,43,33,-12,-27,38,38,54,55,34,34,30
4,38,34,-14,-22,36,38,52,52,32,32,28
1,36,34,-16,-19,35,38,50,51,30,30,28
0,36,35,-17,-19,35,39,50,50,30,30,28
0,36,35,-17,-19,35,40,49,50,29,29,27
2,37,34,-16,-21,35,40,48,49,28,28,26
3,38,33,-15,-22,35,41,47,48,28,27,25
5,38,32,-13,-23,35,41,46,48,27,26,23
6,39,31,-12,-24,35,40,44,47,26,25,22
7,40,31,-12,-24,35,39,42,46,24,24,20
7,41,32,-12,-25,36,38,41,46,22,22,19
6,42,34,-14,-24,38,36,39,45,19,20,17
4,42,37,-16,-24,39,36,39,44,17,18,16
2,42,39,-18,-23,40,36,39,43,16,16,16
1,43,40,-19,-22,41,37,39,43,15,15,15
2,44,40,-19,-23,41,38,39,43,16,15,16
2,44,40,-19,-23,42,40,39,43,16,15,16
1,44,41,-19,-23,42,41,39,44,17,16,15
1,44,41,-20,-23,42,42,39,44,17,16,15
0,44,42,-21,-22,43,44,39,45,18,17,15
1,44,42,-21,-23,43,45,40,45,19,17,15
5,45,39,-18,-25,42,46,40,45,19,17,14
7,46,37,-16,-27,41,46,40,45,19,17,14
8,45,36,-14,-28,40,47,39,44,18,16,13
7,45,36,-15,-27,40,47,38,42,17,16,12
4,43,37,-17,-25,40,46,36,41,16,15,11
2,42,39,-19,-23,40,46,34,40,15,13,10
1,42,39,-20,-23,40,45,33,39,14,12,10
2,43,39,-20,-23,40,45,33,39,12,11,10
4,45,40,-19,-25,42,46,34,39,12,11,10
6,47,40,-18,-27,43,46,35,40,12,10,10
7,49,41,-18,-28,44,46,36,40,12,10,10
7,50,42,-18,-29,46,47,36,41,12,10,10
6,51,44,-20,-29,47,46,37,43,13,11,10
4,51,46,-22,-28,48,47,39,44,14,12,11
2,52,49,-24,-28,50,47,41,46,15,14,12
-1,52,51,-27,-26,51,47,43,48,17,15,13
-4,50,53,-29,-24,51,45,43,49,17,16,13
-6,50,54,-31,-23,51,43,43,49,17,15,13
-6,50,54,-31,-23,52,41,44,49,16,15,13
-5,52,55,-31,-25,53,40,46,50,16,16,14
-2,56,56,-30,-28,56,41,48,52,18,19,17
1,59,57,-29,-31,58,41,50,53,20,22,20
3,61,56,-28,-33,58,41,51,54,22,24,22
5,63,56,-27,-35,59,42,51,54,23,26,24
7,65,57,-26,-37,61,43,52,54,24,26,25
9,67,57,-25,-40,62,44,52,55,25,27,27
12,70,57,-24,-42,63,46,53,56,27,29,28
14,71,56,-22,-44,64,47,54,57,29,30,30
16,72,55,-20,-45,63,48,54,57,31,31,31
17,73,54,-19,-46,63,48,53,57,32,31,32
18,74,55,-19,-47,64,48,53,56,33,31,33
18,74,55,-19,-47,64,48,53,56,33,30,33
17,74,55,-19,-46,64,47,52,55,34,30,33
16,72,55,-20,-45,63,45,52,55,34,31,33
14,70,55,-20,-43,62,44,52,54,34,31,32
12,68,55,-21,-41,61,43,52,54,33,32,32
10,67,56,-23,-40,61,42,52,55,33,33,32
9,67,57,-24,-39,62,42,52,56,33,34,33
9,68,58,-25,-39,63,41,53,58,34,35,34
10,70,59,-24,-41,64,42,54,59,36,37,35
14,73,59,-23,-44,66,42,56,61,38,39,37
17,77,59,-21,-48,68,42,57,63,41,41,39
20,80,59,-19,-51,70,42,58,63,43,43,41
23,83,60,-18,-54,72,42,58,64,44,45,43
24,86,61,-18,-56,74,42,58,65,45,46,45
25,88,62,-18,-58,75,42,59,65,46,46,47
27,90,62,-18,-59,76,43,60,65,47,47,48
27,91,62,-18,-60,76,43,60,65,47,47,49
27,90,62,-18,-60,75,42,60,64,47,47,50
27,89,60,-17,-59,74,41,59,63,46,46,50
26,87,59,-17,-58,72,40,58,61,46,46,50
25,85,58,-17,-57,71,38,57,60,45,45,50
25,84,57,-16,-56,70,36,56,59,45,45,50
26,83,55,-15,-56,69,35,55,58,45,45,50
27,83,54,-14,-56,68,33,54,58,45,44,49
27,82,53,-13,-56,67,32,54,58,44,44,49
27,81,52,-13,-56,66,31,53,57,44,44,49
27,80,51,-13,-55,65,30,53,57,44,44,49
26,79,51,-13,-54,64,29,53,57,44,44,48
25,78,51,-14,-53,64,28,53,56,44,44,48
25,77,51,-14,-52,63,28,53,56,44,44,47
24,77,51,-14,-51,63,28,53,56,43,44,47
24,76,51,-14,-51,63,28,53,56,43,44,46
24,76,52,-14,-51,63,28,53,56,42,44,45
24,77,52,-15,-51,64,29,53,56,42,44,44
23,77,53,-15,-51,64,30,52,56,42,44,44
23,77,54,-16,-51,65,31,52,56,42,44,43
22,78,55,-17,-51,66,32,51,55,41,44,43
22,78,56,-17,-51,66,33,50,54,41,43,42
21,78,56,-18,-50,66,34,49,52,40,42,42
21,77,55,-17,-50,65,35,47,50,39,41,41
22,76,54,-16,-49,63,35,46,48,38,39,40
22,74,52,-15,-49,61,36,44,46,36,37,39
23,73,49,-13,-48,59,36,43,45,35,36,38
23,71,47,-12,-48,57,36,42,44,34,35,38
24,69,44,-10,-47,55,36,41,43,33,34,37
24,67,42,-9,-47,54,36,40,42,33,33,36
24,66,40,-8,-46,52,35,39,41,32,33,36
24,65,39,-7,-46,51,35,38,41,32,32,35
24,64,38,-7,-45,51,34,38,40,31,31,35
23,63,39,-8,-44,50,33,37,40,31,31,34
22,62,39,-9,-43,50,32,37,40,31,30,34
20,61,40,-10,-42,50,31,36,39,30,30,33
19,61,41,-11,-41,51,30,35,39,30,29,33
18,61,42,-12,-40,51,29,35,38,29,28,32
17,60,42,-13,-40,51,28,33,36,28,27,30
17,60,42,-13,-39,51,27,32,35,27,26,29
17,59,42,-13,-39,50,26,31,33,25,25,27
17,59,41,-13,-39,50,26,30,32,24,24,26
17,59,41,-12,-38,49,26,29,31,24,24,25
17,58,40,-12,-38,49,26,28,31,23,23,25
17,58,40,-12,-38,49,27,28,31,24,23,25
17,58,39,-11,-38,49,27,27,31,25,24,25
18,58,39,-11,-38,49,28,27,31,25,24,25
18,58,38,-10,-38,48,28,27,31,26,24,25
18,57,38,-9,-38,48,28,26,31,26,24,25
19,57,37,-8,-38,47,28,26,30,26,23,24
19,56,36,-8,-38,46,27,25,29,26,22,23
19,56,35,-7,-38,45,27,24,29,25,21,22
19,55,35,-7,-38,45,27,23,28,24,20,21
18,55,35,-7,-37,45,26,22,27,23,19,20
17,54,35,-8,-36,44,26,21,27,22,19,19
15,52,36,-9,-35,44,26,21,27,22,18,19
13,51,37,-11,-33,43,26,21,27,21,18,19
12,50,37,-12,-32,43,27,21,27,21,18,19
10,49,38,-13,-31,42,27,22,27,21,19,19
9,48,38,-14,-30,42,27,23,27,22,20,20
9,48,38,-14,-30,42,27,23,28,22,21,20
10,49,38,-14,-31,43,27,24,28,23,21,21
11,50,39,-14,-32,44,27,25,29,23,22,21
12,52,39,-14,-33,45,27,26,29,24,23,22
13,53,40,-14,-34,46,27,26,30,24,23,22
13,54,40,-14,-35,47,27,27,30,25,24,23
14,56,41,-14,-36,48,26,27,30,25,24,24
14,57,42,-14,-37,49,26,28,30,25,25,24
14,59,43,-14,-38,50,26,29,30,26,25,25
14,60,45,-15,-38,52,25,30,31,26,25,26
14,62,47,-17,-39,54,25,32,31,26,26,27
14,64,49,-18,-40,56,25,33,33,27,27,28
14,67,51,-19,-42,59,25,35,34,28,28,30
16,71,54,-19,-44,62,26,37,37,29,30,31
18,76,57,-19,-48,66,26,39,39,31,32,33
20,81,59,-19,-52,70,27,41,42,34,35,35
23,86,62,-20,-55,74,28,43,44,36,38,37
24,91,65,-20,-59,78,30,45,46,39,41,39
26,96,68,-21,-62,82,32,48,49,41,43,42
28,101,71,-22,-65,86,34,50,51,44,46,44
30,106,74,-23,-69,90,38,52,54,46,48,46
32,111,77,-23,-72,93,41,54,56,48,50,48
33,115,79,-23,-75,96,44,55,58,50,52,49
35,118,80,-23,-77,98,48,56,60,51,53,51
35,120,82,-23,-78,100,50,56,61,52,54,52
35,122,83,-24,-79,102,52,56,62,53,55,53
35,123,85,-25,-80,103,54,56,63,54,55,54
34,125,87,-26,-80,105,55,56,63,55,56,56
34,127,90,-28,-81,108,56,57,64,56,57,58
36,129,92,-28,-83,110,56,58,65,58,59,60
38,133,93,-28,-86,112,55,60,66,60,61,63
41,137,94,-27,-90,115,55,61,67,62,63,65
45,142,95,-25,-94,118,53,63,68,64,65,68
49,147,96,-24,-98,121,52,65,69,67,68,72
53,152,97,-22,-103,124,50,67,70,70,70,75
57,157,98,-21,-107,127,48,69,72,73,73,78
61,162,99,-19,-111,130,46,70,73,76,75,81
64,166,100,-17,-115,132,43,71,75,79,77,84
68,169,100,-16,-119,134,40,72,76,82,79,87
71,172,100,-14,-122,135,38,72,77,84,81,89
74,174,99,-12,-124,136,35,72,77,85,82,90
76,175,98,-10,-126,136,32,72,77,86,83,92
77,175,96,-9,-127,136,30,71,76,86,83,92
78,174,94,-8,-127,134,27,70,75,87,83,92
79,172,91,-6,-126,131,24,68,73,87,83,92
81,170,86,-3,-126,128,21,65,71,86,82,91
83,166,80,2,-125,122,17,61,68,84,80,89
86,161,73,6,-124,116,13,57,64,81,77,86
87,154,65,11,-121,109,9,53,60,78,74,82
86,146,58,14,-116,101,5,49,56,73,70,78
82,136,52,15,-109,93,1,45,52,69,66,73
77,125,47,15,-101,85,-2,41,47,64,61,68
71,115,43,14,-93,77,-5,37,43,59,56,62
64,104,39,13,-84,70,-6,33,39,53,51,57
57,94,37,11,-76,64,-6,29,35,48,46,51
50,85,35,8,-68,59,-5,26,32,43,40,45
44,77,33,6,-61,54,-4,23,28,38,35,40
37,69,31,3,-54,49,-2,20,25,33,31,35
31,61,30,1,-47,45,0,18,22,28,27,31
25,54,28,-2,-40,41,1,16,19,24,23,27
20,47,27,-3,-35,37,2,14,16,21,20,24
17,41,25,-4,-30,33,2,12,14,18,18,21
15,37,22,-3,-27,29,2,9,11,16,16,19
14,33,18,-2,-25,25,1,6,9,14,14,17
14,29,15,0,-23,22,0,3,6,12,13,15
14,26,11,2,-21,18,0,0,4,10,11,13
13,22,8,3,-19,15,-1,-2,2,8,9,11
12,19,6,4,-17,12,-1,-3,0,7,8,10
11,17,4,4,-15,10,-1,-4,-1,5,7,9
10,15,4,3,-14,9,-1,-4,-1,5,6,8
9,14,4,3,-13,9,0,-3,-1,5,6,7
7,14,5,1,-12,9,0,-2,0,5,6,7
6,13,6,0,-11,9,0,-2,0,6,6,7
4,12,6,-1,-10,9,0,-2,0,6,6,7
3,11,7,-2,-8,8,0,-2,0,6,5,6
1,9,6,-2,-7,7,-1,-3,-1,5,4,6
0,8,6,-3,-5,6,-1,-3,-2,4,2,5
-1,7,5,-3,-4,5,-2,-4,-3,3,1,4
-1,6,5,-3,-4,5,-2,-5,-4,2,0,4
-1,5,4,-3,-3,4,-2,-5,-4,1,0,4
-1,4,4,-3,-3,3,-2,-5,-4,1,0,3
-1,3,3,-2,-2,3,-2,-5,-4,0,0,3
-1,3,2,-2,-2,2,-2,-5,-4,0,0,3
-1,2,1,-1,-2,1,-2,-4,-4,0,0,2
1,2,1,1,-1,1,-2,-4,-4,0,1,3
1,2,0,0,-1,0,-1,-3,-2,1,0,2
0,0,0,0,0,0,0,0,0,0,0,0
-1,-1,1,0,2,-1,4,5,6,1,-1,-1
-4,-4,2,-2,5,-1,7,10,11,0,-2,-2
-7,-3,5,-5,6,0,10,19,19,1,-1,-2
-16,-6,11,-13,12,3,16,26,24,-3,-4,-4
-7,12,21,-13,-1,16,20,46,43,11,10,7
-1,30,32,-17,-12,31,23,68,65,24,27,26
22,59,38,-6,-39,47,19,98,92,56,60,58
48,89,44,1,-66,67,12,133,125,92,100,101
81,120,39,22,-100,80,1,164,155,143,155,159
121,157,34,45,-137,94,-7,200,189,207,221,229
178,198,23,79,-187,111,-25,220,207,265,283,313
243,248,6,120,-243,125,-44,239,224,332,352,406
307,304,-5,157,-303,150,-65,263,244,408,431,511
377,360,-16,196,-366,171,-86,279,261,490,513,625
437,452,14,213,-444,232,-103,305,281,582,606,747
501,550,50,225,-523,301,-117,327,293,674,698,878
530,623,94,219,-575,358,-120,345,298,758,779,996
550,700,150,201,-624,422,-117,365,302,841,864,1115
547,692,147,200,-619,420,-130,332,280,854,864,1106
532,680,149,192,-604,413,-141,291,256,855,852,1075
489,661,171,158,-574,415,-125,236,204,775,764,971
434,625,194,122,-528,409,-101,172,140,675,648,833
353,570,216,69,-462,393,-62,119,55,593,565,735
262,488,229,18,-373,358,-17,56,-42,490,460,611
188,397,210,-12,-292,302,-30,-55,-117,317,281,425
109,294,184,-36,-201,240,-49,-180,-201,113,78,217
54,215,160,-51,-133,185,-39,-234,-253,0,-29,94
0,143,143,-71,-70,144,-29,-279,-299,-99,-120,-7
-37,114,151,-94,-38,131,-8,-287,-322,-162,-174,-63
-63,104,166,-114,-20,133,8,-278,-325,-198,-200,-85
-77,98,177,-125,-11,136,11,-268,-316,-212,-208,-94
-77,101,181,-130,-10,140,8,-243,-289,-201,-195,-81
-71,107,178,-124,-19,142,4,-205,-249,-161,-154,-60
-58,110,167,-113,-25,138,2,-164,-204,-110,-102,-36
-37,107,146,-90,-34,126,-3,-128,-162,-81,-79,-29
-16,100,117,-68,-41,108,-4,-97,-126,-61,-64,-32
-15,84,100,-57,-34,92,5,-83,-111,-50,-55,-41
-20,68,89,-53,-23,77,13,-72,-99,-50,-54,-51
-28,57,83,-56,-13,69,19,-66,-92,-49,-54,-57
-35,51,87,-62,-7,70,21,-56,-82,-47,-51,-53
-29,51,81,-55,-10,64,16,-52,-70,-50,-52,-48
-21,52,73,-47,-15,64,13,-46,-56,-50,-50,-40
-9,61,70,-39,-24,64,20,-28,-40,-32,-28,-21
0,65,65,-30,-31,65,28,-10,-26,-10,-4,1
6,64,58,-26,-35,60,33,4,-12,1,7,3
11,59,47,-17,-33,53,38,12,-4,7,11,2
5,40,36,-15,-21,36,38,8,-7,7,7,-11
-2,21,24,-11,-10,23,33,-4,-16,2,-1,-24
2,21,21,-9,-10,21,44,5,-18,6,5,-21
7,36,29,-10,-21,32,51,15,-14,12,13,-8
6,37,31,-12,-22,34,55,19,-11,20,20,-1
7,41,33,-12,-24,37,57,24,-8,29,28,6
8,44,35,-13,-26,39,57,27,-4,36,35,11
9,45,35,-13,-28,40,57,28,-2,41,39,13
12,47,34,-11,-30,41,57,30,-1,41,39,13
14,48,33,-10,-31,40,57,30,0,42,39,11
14,47,31,-8,-32,39,57,31,0,42,39,10
16,47,29,-7,-32,38,57,31,0,41,37,9
18,47,27,-5,-33,36,55,30,1,39,35,7
19,47,27,-4,-33,36,53,29,1,37,34,7
17,46,28,-6,-32,36,52,29,2,38,36,7
17,47,29,-6,-32,37,52,29,3,40,39,9
18,48,29,-6,-34,38,53,30,4,45,42,12
19,49,30,-6,-35,39,54,32,5,49,45,15
21,51,29,-5,-37,40,55,33,6,50,45,17
22,52,30,-4,-38,41,56,33,6,51,45,18
21,52,30,-5,-37,41,56,32,7,49,44,17
21,51,29,-5,-37,40,54,29,7,46,41,14
22,50,28,-4,-37,39,50,26,7,41,36,11
23,50,26,-2,-37,38,45,22,8,36,31,7
25,50,25,0,-39,38,41,19,9,29,26,4
27,51,24,1,-40,38,39,17,10,24,21,3
22,39,17,2,-31,28,29,12,8,15,15,3
21,36,15,2,-29,26,28,13,8,13,13,3
19,32,12,3,-26,22,26,14,7,14,14,5
18,28,9,4,-23,18,23,15,7,15,15,5
23,38,14,4,-31,26,30,21,11,23,21,7
25,40,14,5,-33,27,29,22,13,25,23,7
29,44,15,7,-37,29,29,22,16,25,23,6
33,50,16,8,-42,33,29,22,19,26,23,6
37,55,17,10,-47,36,28,22,21,25,22,4
41,61,20,10,-52,40,30,22,23,25,22,3
42,68,25,8,-56,46,33,24,25,26,24,4
44,74,30,6,-60,52,37,26,28,28,26,6
46,80,34,5,-63,57,41,29,30,31,30,9
47,84,37,4,-66,61,43,32,32,34,34,12
47,86,39,4,-66,62,43,33,33,36,36,14
47,86,38,4,-66,62,42,34,34,37,38,15
47,85,37,5,-66,61,39,33,35,38,39,16
48,84,36,6,-66,59,36,33,36,39,39,16
48,84,35,7,-66,59,34,32,36,39,39,15
49,84,35,7,-67,59,33,32,37,40,39,14
50,86,35,7,-68,60,31,32,38,40,39,13
51,88,36,7,-70,62,31,32,39,40,39,14
54,91,37,8,-73,64,30,34,40,41,40,15
56,94,38,9,-75,66,29,36,42,42,42,17
57,95,38,10,-77,67,28,38,44,44,43,19
59,96,37,11,-78,67,26,39,45,45,45,21
60,96,35,13,-79,66,25,40,46,46,46,23
62,96,34,14,-80,65,24,41,47,47,46,25
64,98,34,15,-82,67,24,43,49,49,48,28
66,101,35,16,-85,68,26,45,52,51,50,31
69,105,36,17,-88,71,27,47,55,54,52,34
73,109,35,19,-92,72,29,50,58,56,55,38
78,112,33,22,-96,73,30,52,60,58,58,40
82,115,32,25,-99,73,31,55,62,61,60,43
85,116,31,27,-101,74,31,57,64,64,63,45
87,117,30,29,-103,73,30,59,65,66,65,46
89,116,28,30,-103,72,29,59,66,68,66,45
90,116,26,32,-103,71,27,60,66,68,66,45
91,115,24,33,-103,70,25,61,67,67,66,44
92,115,23,34,-104,70,24,62,68,67,66,43
93,119,25,34,-106,72,23,64,69,67,66,43
94,123,27,34,-109,75,22,66,70,68,67,44
95,127,31,32,-111,79,22,68,71,69,67,46
96,131,34,31,-114,83,22,70,73,70,68,48
98,135,35,32,-117,85,21,71,74,71,70,51
102,139,36,32,-120,87,20,74,76,73,72,54
106,144,36,35,-125,90,18,77,80,76,76,58
111,148,35,37,-129,91,16,81,83,79,80,62
115,151,35,40,-133,92,15,86,86,82,83,65
120,155,34,43,-138,94,13,90,89,85,87,69
125,158,33,46,-142,95,11,93,91,88,91,72
130,162,32,49,-146,96,10,96,93,91,94,75
135,166,31,51,-151,98,9,98,95,93,98,78
138,169,30,53,-154,100,8,100,97,94,100,80
142,172,30,55,-157,101,7,102,98,95,102,81
144,175,30,56,-160,103,7,104,98,96,103,81
146,178,31,57,-162,105,7,106,98,96,104,82
148,181,32,58,-165,106,8,107,98,96,104,82
150,182,31,59,-166,107,8,107,97,96,104,82
151,183,30,60,-167,106,7,105,96,94,102,81
153,183,28,62,-168,105,6,103,94,92,100,79
155,183,27,64,-169,105,4,101,93,90,98,77
157,185,26,65,-171,105,3,99,93,89,96,75
159,187,26,66,-173,107,3,99,93,88,94,74
162,190,27,67,-177,109,4,99,93,88,94,74
165,193,27,68,-179,110,5,100,94,89,94,74
167,194,26,70,-182,111,7,101,95,90,95,74
168,194,25,71,-182,111,8,101,95,90,95,74
166,192,25,70,-180,110,10,101,96,90,95,73
164,190,24,70,-178,108,12,101,95,89,95,72
162,187,25,68,-176,107,13,101,95,88,94,72
159,185,25,67,-173,106,14,100,95,87,93,71
156,183,26,65,-170,105,14,99,94,85,92,71
152,181,28,62,-167,105,15,97,93,84,90,71
147,178,29,59,-163,104,14,95,92,83,89,71
143,174,31,56,-158,103,14,93,91,82,88,71
139,171,31,53,-154,101,14,91,90,81,87,70
135,168,32,50,-151,100,14,89,88,81,86,69
131,166,34,48,-147,100,15,88,87,81,85,69
126,163,36,44,-144,100,17,87,85,81,85,68
120,160,39,40,-139,100,19,87,85,82,85,68
114,156,41,36,-135,99,21,86,84,83,85,67
109,151,41,33,-129,97,23,84,83,83,85,65
103,145,41,30,-124,94,24,81,81,82,84,64
97,138,41,27,-118,90,26,78,79,81,83,62
90,131,41,24,-111,87,27,74,76,80,81,59
84,125,41,21,-105,84,27,70,73,77,78,55
78,119,41,18,-100,81,27,65,69,74,75,50
74,115,41,16,-95,79,27,60,65,69,70,45
71,112,41,15,-92,77,27,55,61,64,65,39
69,109,40,14,-90,75,27,51,57,59,60,34
68,107,38,14,-88,73,28,46,53,55,56,29
66,104,37,14,-85,70,28,42,49,51,52,24
63,100,36,13,-82,68,28,38,45,47,48,19
58,95,36,11,-76,65,28,34,41,43,44,15
51,89,37,6,-70,63,29,31,38,40,40,11
42,83,40,0,-62,61,30,28,35,36,36,7
33,76,42,-6,-54,59,31,25,32,33,32,4
24,69,43,-11,-47,57,33,22,29,30,29,1
18,63,44,-14,-41,54,35,20,27,27,26,-2
14,58,43,-15,-37,52,35,17,24,25,23,-4
12,55,41,-15,-34,50,36,15,22,23,22,-6
13,54,40,-14,-34,48,36,13,20,21,20,-8
15,55,38,-12,-36,48,37,12,20,20,19,-9
20,58,37,-9,-40,49,38,12,20,19,19,-9
25,62,35,-5,-45,50,39,12,20,19,19,-9
30,65,34,-2,-49,50,40,13,21,19,19,-9
33,67,32,0,-52,50,39,13,20,20,20,-9
35,67,31,2,-52,50,38,12,19,19,20,-10
34,67,31,1,-52,49,37,11,17,18,19,-11
31,66,33,-2,-49,50,36,10,16,17,18,-12
28,65,35,-4,-47,51,35,8,14,16,17,-14
27,65,37,-6,-47,52,35,7,13,15,15,-15
25,65,39,-8,-45,52,35,6,12,14,14,-17
24,62,38,-8,-43,51,35,3,11,13,12,-19
21,60,38,-9,-41,50,35,2,9,12,11,-21
18,57,39,-10,-38,49,35,2,9,11,10,-22
17,56,39,-11,-36,48,35,2,8,11,9,-23
17,57,39,-11,-37,48,35,2,9,11,9,-23
17,57,39,-11,-37,48,36,3,9,12,9,-22
15,56,40,-12,-36,48,37,3,10,12,9,-22
13,54,40,-13,-34,47,37,3,9,12,9,-22
11,52,40,-15,-31,46,36,3,7,12,8,-23
9,50,40,-15,-29,45,35,2,6,11,8,-23
10,51,41,-15,-30,46,35,1,5,9,7,-23
11,53,41,-15,-32,47,36,1,5,9,8,-23
13,57,43,-14,-35,50,38,3,7,9,9,-21
15,59,44,-14,-38,51,41,4,8,10,10,-21
16,60,43,-13,-39,52,42,4,8,11,10,-21
18,60,42,-11,-40,51,43,5,8,12,10,-20
21,60,39,-9,-41,50,44,5,8,12,10,-21
23,61,37,-7,-43,49,43,5,7,12,10,-21
25,62,36,-6,-44,50,43,4,8,12,10,-20
26,63,37,-5,-45,50,43,5,9,13,10,-21
25,63,37,-6,-45,50,43,5,9,12,10,-21
24,63,38,-7,-44,51,43,5,9,12,10,-21
23,63,39,-8,-43,51,43,6,9,13,10,-22
23,63,40,-9,-43,52,42,6,9,13,10,-22
23,66,42,-9,-45,54,42,7,10,14,11,-21
25,68,43,-9,-47,56,42,8,11,15,12,-21
27,71,44,-9,-49,58,42,9,13,16,13,-19
28,74,46,-9,-51,60,42,10,15,18,15,-17
28,76,48,-10,-52,62,41,11,16,20,17,-15
26,77,51,-13,-52,64,42,13,18,22,19,-12
22,78,55,-16,-51,67,42,15,21,24,22,-10
20,78,58,-19,-50,68,43,17,23,27,25,-7
18,78,59,-20,-49,69,43,18,25,28,27,-5
16,78,61,-22,-49,71,43,19,26,30,29,-3
15,79,63,-24,-48,72,43,19,27,31,30,-2
14,80,65,-25,-48,73,44,20,28,32,31,0
13,81,67,-27,-48,74,45,22,29,33,33,1
14,82,68,-27,-48,75,45,23,30,35,34,2
16,83,67,-26,-49,75,45,24,31,36,35,4
17,84,67,-25,-50,75,44,25,31,37,36,5
19,84,66,-24,-51,75,43,26,32,38,37,6
20,85,65,-23,-52,74,42,27,32,39,39,8
22,85,63,-21,-53,74,41,28,33,40,40,9
25,86,62,-19,-55,74,40,29,34,41,41,10
28,87,61,-17,-57,74,39,30,35,42,43,11
31,89,60,-15,-59,75,38,31,36,43,44,12
33,91,59,-14,-61,76,38,32,37,44,45,13
34,92,59,-13,-63,77,37,32,38,45,46,14
35,93,59,-12,-64,77,37,32,38,45,46,15
35,93,59,-12,-64,77,37,31,37,45,46,15
35,93,59,-12,-64,76,37,30,36,45,45,15
35,92,59,-12,-64,76,36,29,34,44,44,15
34,92,58,-12,-63,75,36,27,32,43,43,14
34,92,58,-12,-63,75,36,26,30,42,41,14
34,91,58,-12,-63,75,35,24,28,40,40,13
33,91,58,-12,-63,75,35,23,27,39,38,13
32,91,58,-12,-62,75,35,22,26,38,37,12
31,90,58,-13,-61,75,34,21,25,37,36,12
31,90,58,-14,-61,75,34,20,25,37,36,12
31,90,58,-14,-61,75,34,19,25,37,36,13
32,90,58,-14,-61,75,33,19,25,37,36,13
33,91,58,-13,-63,76,33,19,25,38,36,14
34,92,58,-12,-64,76,32,18,25,38,36,14
36,93,58,-11,-65,77,32,18,25,38,36,14
37,94,57,-10,-66,76,31,18,25,38,35,14
37,93,57,-10,-66,76,30,17,24,37,35,14
37,92,56,-10,-65,74,29,17,24,37,34,14
36,90,55,-10,-64,73,28,17,23,36,34,14
35,88,54,-10,-63,71,27,17,22,35,34,13
35,87,53,-10,-62,70,27,17,22,35,34,13
35,86,52,-9,-61,70,28,17,22,35,34,13
35,86,51,-9,-61,69,29,17,22,35,34,13
35,85,51,-9,-60,69,30,17,23,35,35,13
35,84,50,-8,-59,68,31,17,23,35,35,13
35,83,49,-8,-59,67,32,16,22,35,35,13
35,82,48,-7,-58,66,33,16,22,35,34,13
35,81,47,-6,-58,65,33,15,22,34,33,13
35,80,46,-5,-57,64,33,15,22,34,32,13
34,79,45,-5,-56,62,33,15,21,34,32,12
33,78,44,-6,-55,61,32,15,21,33,31,12
32,76,44,-6,-54,60,31,14,20,33,30,11
30,75,44,-7,-52,59,30,14,19,32,30,11
29,74,44,-8,-51,58,30,13,18,31,29,10
28,72,44,-8,-50,58,30,12,17,30,28,10
27,71,43,-9,-49,57,30,11,15,29,27,9
26,69,43,-9,-47,56,31,9,14,27,25,8
24,68,43,-10,-46,56,30,8,12,26,24,7
23,67,43,-11,-45,56,30,7,11,24,23,6
23,67,44,-11,-45,56,29,6,11,23,22,5
23,68,44,-11,-46,57,29,6,11,23,22,5
25,69,44,-10,-48,58,29,6,11,23,22,5
26,70,44,-9,-49,59,29,7,12,23,22,5
27,71,43,-8,-50,59,30,7,13,23,22,5
28,71,42,-7,-51,58,31,7,13,24,23,6
29,71,41,-6,-51,57,32,7,14,25,24,6
29,71,40,-6,-51,57,33,7,14,26,25,7
29,71,40,-6,-51,57,35,8,15,26,26,7
29,71,40,-6,-51,57,36,8,15,27,26,7
29,72,40,-5,-51,57,36,8,15,27,26,7
29,72,40,-5,-51,57,37,7,15,27,26,7
29,71,40,-5,-51,56,36,7,14,26,25,6
28,71,40,-5,-50,56,35,6,13,25,24,5
26,70,41,-6,-49,56,34,5,13,24,23,4
25,69,42,-8,-47,56,32,5,12,23,22,3
23,68,43,-9,-46,56,30,5,12,23,22,3
22,67,43,-10,-45,56,28,5,12,22,21,3
22,67,43,-10,-45,56,27,5,12,22,21,3
23,67,43,-10,-45,56,26,6,12,22,21,4
23,68,43,-10,-46,56,26,7,12,23,22,5
24,69,44,-10,-47,57,26,8,13,23,22,6
25,71,45,-10,-48,58,26,10,14,24,23,8
25,73,47,-11,-49,60,27,12,16,26,25,10
25,75,49,-12,-50,62,28,15,18,27,27,12
26,78,51,-13,-51,64,29,18,20,29,29,15
26,80,53,-14,-53,67,31,22,23,32,32,18
26,83,56,-15,-55,69,33,25,25,34,35,21
27,86,58,-16,-57,72,36,29,28,37,38,24
28,89,60,-17,-59,75,39,32,31,39,41,26
28,93,63,-18,-60,78,41,35,33,41,43,29
29,95,65,-19,-62,81,44,38,36,43,45,31
29,98,68,-20,-63,84,46,41,38,45,47,33
29,100,71,-22,-64,87,48,43,40,47,49,34
29,103,74,-23,-65,90,50,46,42,49,51,35
29,105,77,-25,-67,93,51,48,44,50,52,36
29,108,79,-26,-69,95,53,50,45,51,53,38
30,112,82,-27,-71,98,55,51,46,52,54,39
32,116,85,-27,-74,102,56,53,47,54,56,41
33,121,88,-28,-77,106,57,54,48,55,57,44
35,126,91,-28,-81,110,57,54,49,57,59,47
38,132,93,-28,-85,114,56,55,50,59,60,50
41,137,95,-28,-89,117,55,55,51,62,62,54
44,142,97,-27,-93,120,54,56,52,64,64,58
48,147,98,-26,-97,123,53,56,53,67,65,61
51,152,99,-25,-101,126,52,57,54,69,67,64
55,156,100,-24,-105,129,51,58,55,72,69,67
58,160,101,-23,-109,131,49,59,57,74,70,69
61,163,101,-21,-112,132,47,59,58,77,72,71
63,164,100,-20,-114,133,45,60,59,79,73,72
65,165,100,-19,-115,134,43,60,60,80,74,74
67,166,99,-17,-116,133,41,60,61,82,74,75
69,166,97,-15,-118,132,38,60,61,82,75,76
71,167,95,-13,-119,131,36,60,60,83,75,76
74,167,93,-10,-120,130,33,59,59,83,75,77
76,167,90,-8,-121,129,30,58,57,82,75,77
78,166,87,-5,-122,127,27,56,56,81,74,76
79,164,83,-2,-121,124,24,54,54,80,73,76
80,161,78,1,-120,120,21,51,51,78,71,74
81,156,73,4,-118,115,18,48,49,76,69,72
81,150,66,8,-115,109,16,46,46,73,66,69
81,143,60,11,-111,102,14,44,43,70,63,66
80,136,54,13,-107,96,12,42,40,66,59,62
78,128,48,14,-102,90,12,40,38,63,56,59
74,119,43,15,-96,83,11,38,35,59,53,55
70,110,39,15,-89,76,10,35,32,56,49,51
64,100,34,14,-82,69,9,32,29,52,46,47
58,91,31,13,-74,62,8,28,25,48,42,43
52,81,28,11,-66,56,7,25,22,44,37,38
45,72,25,9,-59,50,6,22,19,40,33,34
39,64,23,7,-52,45,6,19,16,36,29,30
34,56,21,5,-45,40,5,15,13,32,26,26
29,49,18,4,-39,35,4,12,10,28,22,23
25,42,16,3,-34,31,3,9,7,24,19,19
20,36,14,2,-29,27,2,6,5,21,16,16
16,31,13,1,-24,24,1,3,2,17,13,13
12,26,12,0,-20,21,1,1,0,14,10,11
9,22,11,-2,-16,18,0,-1,-2,12,8,8
6,18,11,-3,-12,16,0,-2,-4,9,5,6
3,15,11,-4,-10,15,0,-4,-5,7,3,4
2,13,10,-4,-8,13,0,-6,-7,6,2,3
2,12,10,-4,-8,13,0,-7,-8,4,0,1
2,12,9,-4,-7,12,0,-8,-9,3,-1,0
2,11,9,-4,-7,11,0,-10,-10,2,-2,-1
0,10,8,-4,-6,11,0,-11,-11,1,-4,-3
-2,8,9,-6,-4,10,-1,-13,-12,0,-5,-4
-5,5,9,-8,-1,9,-2,-15,-13,-2,-6,-5
-8,3,10,-10,1,8,-4,-16,-14,-3,-7,-6
-11,1,11,-12,4,7,-5,-17,-15,-4,-8,-7
-13,-1,11,-13,6,7,-6,-17,-15,-5,-8,-7
-14,-2,12,-14,7,6,-6,-17,-15,-5,-8,-7
-15,-3,12,-14,8,6,-6,-16,-14,-5,-7,-6
-15,-3,12,-14,8,5,-6,-14,-13,-4,-6,-5
-13,-3,10,-13,7,5,-5,-12,-11,-3,-5,-4
-11,-3,8,-10,6,4,-4,-10,-8,-3,-4,-3
-11,-2,9,-10,7,4,-3,-8,-6,-1,-2,0
-6,-1,4,-5,4,3,-1,-4,-3,0,-1,1
0,0,0,0,0,0,0,0,0,0,0,0
7,3,-5,7,-4,0,2,5,6,3,2,1
12,4,-9,11,-7,-1,5,11,12,3,2,0
15,6,-10,13,-9,-1,8,19,21,4,3,0
18,9,-9,14,-12,1,12,27,31,3,2,-3
17,15,-5,10,-15,5,17,42,45,11,9,3
17,18,-1,9,-16,12,20,61,59,20,17,17
28,39,12,7,-32,28,14,86,83,41,44,44
40,66,24,8,-53,46,6,115,112,68,74,83
77,104,29,24,-89,69,0,154,146,123,131,140
115,150,35,39,-131,95,-8,199,183,187,199,210
156,189,33,62,-171,112,-27,220,202,250,263,296
200,229,28,86,-213,130,-48,241,222,319,330,391
255,280,25,115,-266,154,-66,264,243,397,414,499
314,335,20,148,-322,179,-87,282,263,479,500,617
363,412,50,156,-388,232,-105,302,279,575,594,745
413,496,83,164,-452,290,-123,321,294,670,689,879
452,596,141,156,-522,368,-131,330,302,765,781,1015
492,702,211,141,-595,457,-137,337,309,859,870,1146
488,717,227,129,-601,473,-139,326,297,903,906,1183
476,725,250,113,-599,489,-141,310,282,939,929,1207
441,686,245,99,-563,467,-135,252,230,878,855,1115
397,633,235,81,-514,435,-132,183,171,794,757,988
329,598,268,30,-461,433,-117,101,95,660,616,838
249,542,294,-24,-393,419,-100,9,9,489,447,653
179,449,270,-47,-313,362,-94,-84,-80,337,291,484
105,336,229,-61,-219,283,-87,-190,-181,162,110,289
44,245,199,-77,-144,224,-77,-239,-235,29,-9,148
-10,162,172,-90,-75,167,-63,-283,-280,-100,-126,17
-46,120,167,-106,-35,144,-56,-314,-310,-182,-199,-74
-73,102,173,-123,-12,137,-50,-325,-322,-233,-243,-127
-80,95,174,-127,-5,134,-44,-319,-316,-257,-260,-143
-76,101,178,-126,-10,141,-41,-291,-292,-245,-242,-128
-71,108,180,-125,-17,145,-39,-251,-252,-207,-201,-93
-64,113,175,-120,-24,146,-38,-199,-208,-157,-147,-58
-51,113,165,-107,-29,139,-38,-156,-162,-109,-100,-32
-39,106,144,-92,-31,126,-40,-119,-123,-74,-68,-20
-31,90,119,-76,-27,107,-35,-97,-101,-58,-58,-29
-25,71,95,-59,-21,85,-30,-84,-84,-58,-63,-45
-20,54,73,-47,-15,66,-29,-83,-78,-68,-77,-63
-14,44,59,-36,-13,53,-29,-81,-75,-79,-83,-72
-22,41,61,-42,-10,51,-20,-70,-64,-80,-81,-64
-27,40,68,-48,-4,56,-13,-53,-51,-66,-64,-45
-19,48,66,-43,-14,59,-6,-34,-32,-44,-39,-24
-9,52,61,-36,-20,57,-2,-13,-13,-21,-15,-5
-8,52,61,-34,-21,57,5,3,4,5,6,13
-10,48,56,-34,-18,54,8,13,19,19,20,20
-5,41,45,-25,-17,43,9,18,22,26,23,19
4,35,32,-15,-16,34,12,18,25,22,18,11
8,31,23,-8,-20,28,15,19,25,14,10,2
17,35,17,0,-23,26,19,18,24,11,7,0
12,26,14,0,-18,22,18,16,20,7,1,-1
15,31,15,0,-22,24,16,21,25,13,11,8
17,32,14,2,-24,24,15,23,27,16,15,11
17,31,13,2,-24,23,12,24,28,19,18,13
16,28,11,2,-21,21,9,24,28,20,20,13
13,24,10,1,-19,18,5,24,28,20,19,10
11,21,9,0,-16,16,2,24,28,17,17,8
9,20,9,-1,-15,16,0,24,28,15,15,6
9,21,10,-2,-15,17,-1,25,30,15,14,7
11,24,11,-1,-17,18,-1,27,32,16,16,11
15,28,11,1,-21,20,1,30,35,19,19,16
19,32,11,3,-25,22,2,34,39,23,23,22
23,35,10,6,-29,23,4,36,41,28,28,27
25,37,10,7,-30,24,4,38,43,32,32,31
25,37,10,7,-30,24,4,39,45,34,33,32
25,37,10,6,-31,25,5,40,45,35,33,32
25,39,11,6,-32,26,5,41,46,34,33,31
25,40,12,5,-32,27,5,42,46,34,33,30
23,38,13,4,-31,27,4,43,47,34,33,30
21,38,15,1,-29,28,3,44,47,34,33,30
18,37,18,-2,-28,29,1,44,47,34,34,30
16,38,21,-4,-27,31,-1,45,48,35,35,31
18,42,23,-4,-30,34,-1,46,50,37,37,34
19,45,24,-4,-32,36,-2,47,51,39,39,36
20,45,24,-3,-32,36,-2,47,52,41,41,38
22,46,22,-1,-33,35,-1,47,53,42,42,40
24,46,20,1,-35,34,-1,47,54,43,43,42
27,46,17,4,-37,33,-1,48,56,45,44,43
31,48,15,7,-39,32,0,50,58,47,46,45
33,48,13,10,-41,31,0,52,60,49,48,47
35,48,12,11,-41,31,0,53,62,51,50,49
36,49,11,12,-43,31,1,55,63,53,52,51
38,51,12,13,-45,32,1,57,64,55,54,53
39,53,13,13,-47,34,1,59,66,57,56,56
41,55,14,13,-49,36,1,60,67,59,59,58
42,58,16,13,-51,38,1,61,68,60,61,61
44,61,17,13,-53,40,0,62,69,61,62,63
45,63,18,13,-55,41,-1,63,70,62,62,64
45,65,19,12,-56,43,-1,64,70,62,62,65
46,67,20,12,-57,44,-1,64,70,62,62,65
46,68,22,11,-57,46,-1,65,70,63,63,66
46,70,23,11,-58,47,-1,66,71,64,63,66
48,72,22,12,-60,47,-2,67,72,65,64,66
48,73,23,12,-61,49,-3,68,73,66,65,67
47,74,26,10,-61,51,-4,69,74,67,66,67
45,76,29,7,-61,53,-4,71,76,68,68,69
43,77,33,4,-61,56,-4,72,78,69,70,71
42,79,36,2,-61,59,-5,74,80,72,72,74
41,79,37,1,-61,59,-6,76,81,74,75,77
41,79,37,1,-61,59,-7,77,82,76,77,80
42,78,36,3,-61,58,-9,78,84,79,79,83
44,78,34,5,-62,57,-11,79,85,80,81,86
48,81,32,8,-65,57,-13,80,87,83,83,89
52,84,31,11,-68,58,-14,83,89,85,85,92
56,88,31,13,-72,60,-14,85,92,88,88,96
59,93,32,14,-76,63,-14,88,95,91,91,99
61,96,34,13,-79,66,-14,91,99,94,93,103
63,100,36,14,-81,68,-15,93,102,96,95,106
64,102,36,14,-83,70,-17,94,104,98,97,107
67,104,37,15,-85,71,-19,95,106,99,97,108
69,106,37,16,-87,72,-21,96,108,100,98,109
69,108,38,16,-89,74,-23,97,110,101,99,109
69,110,40,14,-90,76,-25,99,112,102,99,110
68,111,43,12,-90,78,-27,101,114,102,100,111
68,113,45,11,-91,80,-29,103,115,102,101,112
69,116,47,10,-93,83,-31,105,117,103,102,113
72,121,49,10,-97,86,-34,107,119,105,105,115
77,128,50,12,-102,90,-36,110,122,107,107,118
84,135,51,15,-110,94,-38,114,125,111,111,120
91,144,51,19,-118,99,-40,117,129,114,114,123
100,153,52,23,-126,103,-40,121,132,116,116,126
106,159,52,26,-133,107,-41,124,135,119,118,128
110,164,52,28,-137,109,-41,126,138,121,119,130
112,167,53,29,-139,110,-40,128,140,123,121,133
112,167,55,28,-139,111,-40,130,143,125,123,136
112,169,56,28,-140,113,-40,132,145,128,125,140
115,172,57,29,-143,115,-40,134,147,131,128,144
117,175,58,29,-146,117,-41,136,149,134,130,147
118,178,59,29,-148,120,-41,138,150,137,133,149
118,180,61,29,-149,121,-42,139,151,139,134,150
117,180,62,27,-148,122,-43,139,151,140,134,151
117,179,62,27,-148,122,-44,138,150,139,133,150
118,179,60,29,-148,120,-46,137,150,138,131,150
119,178,59,30,-148,119,-46,137,150,136,130,150
119,177,58,30,-148,118,-47,137,150,135,129,150
120,177,57,31,-148,118,-47,137,151,135,129,151
122,179,56,33,-150,118,-47,137,150,136,129,152
124,180,55,34,-152,118,-48,137,150,136,129,152
126,181,54,35,-153,118,-49,137,150,136,128,151
126,180,54,35,-153,118,-50,138,150,134,127,149
124,179,54,34,-152,118,-51,137,150,132,125,147
122,178,55,33,-150,117,-53,137,149,130,123,144
120,176,55,31,-148,116,-55,136,148,128,121,142
118,174,56,30,-146,116,-58,134,146,126,119,140
115,172,57,28,-143,115,-59,134,145,125,119,139
112,169,57,26,-141,114,-60,132,144,124,119,138
109,167,57,25,-138,113,-60,129,142,123,119,137
106,163,57,24,-134,111,-59,126,140,121,118,135
101,158,56,22,-130,108,-58,122,137,117,117,133
97,154,55,20,-125,105,-56,119,134,114,115,132
94,150,55,19,-122,103,-53,116,132,111,114,131
92,148,55,18,-120,102,-49,114,129,109,113,130
91,146,54,18,-118,100,-46,112,127,109,112,130
89,143,54,17,-116,99,-43,110,125,109,111,129
85,140,54,15,-113,98,-41,108,123,108,110,127
80,136,55,12,-108,96,-39,106,121,107,108,125
74,130,57,8,-102,94,-38,103,118,105,105,123
66,125,58,3,-96,92,-37,100,116,103,103,120
58,120,61,-2,-90,91,-36,97,113,100,100,116
51,115,63,-6,-84,90,-34,93,109,97,96,112
46,111,63,-9,-79,88,-33,88,105,93,92,107
43,107,63,-11,-75,86,-32,83,100,89,88,102
40,104,62,-11,-72,84,-31,77,94,84,83,97
39,102,61,-11,-71,82,-31,72,90,79,79,92
40,101,60,-10,-71,81,-31,67,85,76,75,88
41,101,58,-8,-72,80,-31,62,80,72,71,84
42,100,57,-7,-72,79,-31,58,76,69,68,80
43,99,55,-6,-72,77,-32,54,72,65,65,77
43,96,53,-5,-70,75,-34,51,69,62,62,73
41,93,51,-5,-68,73,-35,49,66,59,60,70
39,89,50,-6,-65,71,-35,47,64,56,58,68
35,85,50,-8,-61,69,-35,46,63,54,56,66
30,81,50,-11,-56,67,-35,44,61,52,54,65
25,76,51,-13,-52,65,-35,42,59,49,52,64
21,72,50,-15,-48,62,-35,39,56,46,50,61
20,69,48,-14,-45,59,-35,37,53,44,47,59
21,67,45,-12,-45,57,-34,34,50,41,45,57
22,65,42,-10,-44,54,-33,32,48,39,43,55
22,63,40,-9,-43,52,-32,30,46,38,42,54
21,60,38,-8,-41,49,-32,29,45,37,41,53
18,56,37,-9,-38,46,-32,27,44,36,40,53
16,52,36,-10,-35,44,-33,27,43,35,39,53
14,50,35,-11,-32,43,-33,27,42,35,38,52
12,48,36,-12,-30,42,-34,27,42,35,38,52
10,47,37,-14,-28,42,-34,28,43,36,38,52
7,46,39,-17,-26,43,-35,28,43,36,38,51
3,45,42,-20,-24,44,-37,28,43,36,38,50
1,45,44,-21,-23,45,-38,28,43,36,37,49
1,45,44,-22,-23,45,-40,27,42,35,35,47
2,46,44,-22,-24,45,-40,26,41,33,33,45
2,47,45,-21,-25,46,-40,25,39,32,31,43
3,49,45,-21,-26,48,-40,24,37,30,29,41
4,51,46,-21,-27,49,-39,22,36,27,27,39
5,52,46,-20,-29,50,-39,21,35,26,26,37
6,52,45,-19,-29,49,-40,20,34,24,25,36
6,51,44,-19,-29,48,-41,19,34,23,25,35
4,49,45,-21,-26,47,-42,18,33,22,24,35
1,47,45,-23,-24,47,-43,18,33,21,24,35
-2,45,46,-25,-22,46,-44,18,33,20,24,36
-3,44,47,-25,-21,47,-45,18,34,20,25,36
-2,45,47,-25,-22,47,-45,19,35,22,27,37
-1,46,48,-24,-23,48,-46,19,36,22,27,38
0,49,49,-24,-25,50,-46,19,36,23,27,39
2,52,50,-24,-27,52,-45,19,37,23,28,40
4,56,52,-24,-30,55,-43,21,38,23,28,41
6,59,53,-23,-33,57,-41,22,40,25,29,42
9,62,53,-22,-35,58,-39,24,42,27,30,43
11,64,53,-21,-37,59,-37,26,44,29,32,45
12,66,54,-21,-39,60,-36,28,46,31,34,46
14,68,54,-20,-41,61,-34,29,48,33,36,48
16,70,54,-19,-43,62,-33,30,50,35,38,49
18,72,54,-18,-45,63,-32,31,52,36,40,51
19,74,55,-18,-47,64,-32,32,53,37,41,52
20,76,55,-17,-49,66,-33,32,54,37,42,53
21,78,57,-18,-50,67,-34,33,55,38,42,55
22,80,57,-18,-52,69,-35,33,55,38,43,56
23,81,58,-17,-53,70,-36,34,56,39,44,58
24,83,58,-17,-54,71,-37,34,57,41,45,60
25,84,58,-16,-55,71,-37,34,57,42,46,61
25,84,58,-17,-55,71,-38,35,57,43,48,63
24,83,59,-18,-54,71,-38,35,57,44,49,64
22,82,59,-19,-52,71,-39,35,57,45,49,65
20,81,60,-20,-51,71,-39,35,57,46,50,66
19,80,60,-21,-49,71,-40,35,58,46,50,67
18,79,61,-22,-48,71,-40,35,58,47,50,67
17,78,61,-22,-48,71,-41,35,58,47,51,68
17,79,62,-23,-48,71,-41,35,58,47,51,68
17,79,63,-24,-48,72,-41,36,59,47,51,69
17,80,64,-24,-49,73,-41,37,59,47,52,70
17,81,65,-25,-49,74,-41,38,60,48,53,71
17,82,66,-25,-50,75,-40,39,60,49,53,72
16,83,67,-26,-50,76,-40,39,61,50,54,73
15,84,68,-27,-50,77,-40,40,61,50,55,75
15,84,69,-27,-50,78,-40,41,61,51,56,76
14,84,69,-28,-49,78,-40,41,61,52,57,77
14,83,68,-28,-49,77,-40,41,61,53,58,78
14,82,67,-27,-48,76,-40,40,61,54,58,79
14,82,66,-27,-48,75,-40,40,61,54,59,79
15,81,65,-26,-48,74,-41,38,61,54,59,80
16,81,64,-24,-49,73,-42,37,61,54,59,80
17,80,62,-23,-49,72,-43,36,60,54,58,80
18,80,61,-22,-49,71,-45,35,60,53,58,79
18,79,60,-21,-49,70,-46,34,60,53,58,79
18,78,59,-21,-48,69,-48,33,59,53,58,79
17,77,59,-21,-48,69,-49,33,59,53,57,79
17,76,59,-22,-47,68,-51,32,58,52,57,79
16,76,59,-22,-46,68,-52,32,58,52,56,79
16,76,60,-22,-46,68,-54,31,57,51,56,78
16,77,60,-23,-47,69,-55,31,56,50,55,78
16,78,61,-23,-47,70,-56,31,56,50,55,77
16,80,63,-24,-48,72,-56,31,56,49,55,77
17,81,64,-24,-49,73,-56,31,56,49,55,77
18,83,65,-24,-51,74,-56,32,56,50,55,77
20,85,65,-23,-53,75,-56,33,56,50,55,77
22,87,64,-21,-55,76,-55,33,56,50,55,77
25,88,63,-20,-57,76,-55,33,56,51,55,77
27,89,62,-18,-59,77,-54,33,56,51,55,77
29,90,61,-17,-60,76,-53,33,56,50,54,76
30,90,60,-15,-61,76,-53,32,55,50,53,76
30,89,59,-14,-61,75,-52,32,54,48,52,74
30,88,57,-14,-60,73,-50,31,52,47,51,73
30,86,56,-13,-59,72,-49,30,51,45,49,71
29,84,55,-13,-57,70,-48,29,49,43,48,69
27,82,54,-13,-55,68,-47,28,48,41,46,67
26,80,53,-14,-53,67,-46,27,47,40,45,65
24,79,53,-14,-51,66,-44,26,46,39,44,64
22,77,53,-16,-49,65,-42,26,45,38,44,63
19,74,53,-17,-47,64,-39,27,45,38,44,62
17,72,54,-19,-44,63,-37,27,44,37,43,62
14,69,54,-20,-42,62,-36,27,43,37,43,61
12,66,54,-21,-39,60,-36,26,42,36,42,61
10,64,53,-22,-37,59,-36,25,41,35,41,60
9,62,53,-22,-36,58,-37,23,40,33,40,58
8,61,53,-23,-35,57,-38,21,39,32,38,57
8,61,52,-22,-34,57,-39,20,39,30,37,56
9,61,52,-21,-35,57,-39,19,39,29,35,55
11,63,51,-20,-37,57,-39,19,39,28,34,54
14,66,51,-18,-40,58,-39,19,40,28,34,54
17,69,51,-16,-43,60,-38,20,41,28,34,54
20,72,51,-15,-46,61,-37,20,43,29,35,55
22,76,52,-15,-49,63,-35,21,44,30,36,55
24,80,54,-14,-52,66,-33,23,46,31,37,57
26,84,56,-15,-55,69,-31,24,48,32,38,58
28,88,59,-16,-58,73,-28,26,50,34,40,60
28,92,63,-17,-61,77,-26,28,52,36,42,61
29,96,67,-19,-63,81,-24,30,54,38,43,63
28,100,71,-22,-64,85,-22,32,56,41,45,64
27,103,75,-25,-65,89,-20,33,58,43,47,66
25,105,80,-28,-65,93,-19,35,60,46,49,68
23,107,84,-31,-65,96,-17,36,63,48,50,69
21,109,87,-33,-66,99,-15,38,65,51,52,71
21,111,90,-35,-66,101,-13,39,66,53,54,73
21,112,91,-35,-67,102,-11,41,68,54,55,74
22,114,91,-35,-68,103,-8,42,68,55,56,75
23,115,92,-35,-69,104,-6,42,69,56,56,76
23,117,93,-36,-70,106,-4,42,69,56,56,77
23,119,95,-37,-71,108,-2,43,69,56,56,77
23,121,98,-38,-73,110,-1,43,70,56,56,78
24,125,101,-39,-75,114,1,43,70,56,56,78
25,129,104,-40,-78,118,2,44,71,56,57,79
26,134,108,-41,-81,122,2,45,72,58,58,81
28,139,111,-42,-84,126,2,46,74,60,60,83
29,144,114,-42,-87,130,2,48,75,62,62,85
32,149,116,-42,-91,133,1,49,77,65,64,88
34,153,118,-41,-94,136,-1,51,79,68,67,90
37,157,119,-40,-97,138,-3,52,81,71,69,93
40,160,119,-39,-100,140,-5,53,83,73,72,96
43,163,119,-38,-103,142,-8,54,85,75,74,98
46,166,119,-36,-106,143,-10,55,86,77,76,100
49,170,119,-35,-110,145,-12,55,87,78,77,101
52,172,119,-33,-113,146,-13,55,88,79,78,101
55,175,119,-32,-115,147,-14,54,88,80,78,101
57,176,119,-31,-117,148,-15,52,87,80,77,101
58,177,117,-29,-118,147,-16,50,85,79,76,100
59,176,115,-28,-118,146,-17,47,82,78,75,99
60,173,112,-26,-117,143,-18,43,79,76,73,97
60,169,108,-24,-115,139,-20,40,76,74,71,95
60,163,103,-22,-112,133,-22,37,73,72,69,93
60,156,96,-18,-108,127,-24,34,70,69,66,90
60,148,89,-14,-104,119,-26,31,67,65,63,87
59,139,80,-11,-99,110,-27,28,64,61,59,83
57,129,72,-7,-93,102,-28,25,61,56,56,79
54,119,65,-5,-87,93,-29,23,58,50,52,74
49,108,59,-4,-79,84,-29,20,56,45,48,68
44,98,53,-4,-71,76,-30,18,53,40,44,62
38,87,48,-4,-63,69,-30,15,50,35,40,56
32,77,44,-5,-55,61,-31,11,47,30,35,49
26,67,40,-6,-47,54,-32,8,43,25,30,42
20,58,37,-7,-40,48,-33,4,38,20,25,35
